PE UV       SUBTECH     SPECTRUM    ASCII       PEDS        4.00        
   -1
180621-7 Z SiO2.Sample.asc
18/06/21
16:42:33.00
18/06/21
16:42:33.00
Analyst
Moxtek
424.000000
1
Lambda 950
950L1201053
PerkinElmer UV WinLab 6.0.4.0738 / 1.61.00 Lambda 900

0
0
3350/16 889.8/4
0
0
VIS
1
1
1
CommonBeamDepol,RBeamAtt,SBeamAtt,universal reflectance
0
0
0
0
Program
 
0
3350/0.12 889.8/0.12
0
0
0
 
 
 
0
 
889.8
150
889.8
Front
31
on
3350/S:100 3350/R:100
 
0
0
0
 
0
 
 
 
0
 
 
0
0
8.0
4.00
4.00
False
False
202L1112213
 
0
0


0
0
#HDR
-1
-1
#GR
nm
%R
1.0
0.0
670.000000
-2.000000
124
8
0.420777
0.029361
#DATA
670.000000	0.420777
668.000000	0.390092
666.000000	0.360867
664.000000	0.338702
662.000000	0.314440
660.000000	0.288692
658.000000	0.268083
656.000000	0.247350
654.000000	0.228017
652.000000	0.214609
650.000000	0.196457
648.000000	0.182191
646.000000	0.171217
644.000000	0.158309
642.000000	0.149467
640.000000	0.140199
638.000000	0.135284
636.000000	0.127451
634.000000	0.125722
632.000000	0.124175
630.000000	0.118041
628.000000	0.120118
626.000000	0.118794
624.000000	0.120835
622.000000	0.121129
620.000000	0.122988
618.000000	0.129459
616.000000	0.129432
614.000000	0.136790
612.000000	0.143314
610.000000	0.147072
608.000000	0.156095
606.000000	0.162574
604.000000	0.172361
602.000000	0.178569
600.000000	0.184875
598.000000	0.195948
596.000000	0.203019
594.000000	0.214376
592.000000	0.220490
590.000000	0.228299
588.000000	0.238113
586.000000	0.245360
584.000000	0.252639
582.000000	0.262259
580.000000	0.268267
578.000000	0.275587
576.000000	0.283525
574.000000	0.290482
572.000000	0.295480
570.000000	0.302249
568.000000	0.305994
566.000000	0.311232
564.000000	0.317105
562.000000	0.320049
560.000000	0.325856
558.000000	0.325249
556.000000	0.325290
554.000000	0.327656
552.000000	0.326158
550.000000	0.327526
548.000000	0.327407
546.000000	0.325205
544.000000	0.321616
542.000000	0.319541
540.000000	0.314237
538.000000	0.309761
536.000000	0.304067
534.000000	0.299761
532.000000	0.293278
530.000000	0.285735
528.000000	0.279361
526.000000	0.272452
524.000000	0.263481
522.000000	0.255405
520.000000	0.246820
518.000000	0.239090
516.000000	0.230288
514.000000	0.221921
512.000000	0.213655
510.000000	0.203223
508.000000	0.193497
506.000000	0.184468
504.000000	0.176005
502.000000	0.168163
500.000000	0.157824
498.000000	0.148146
496.000000	0.142456
494.000000	0.135371
492.000000	0.127794
490.000000	0.120195
488.000000	0.109833
486.000000	0.104152
484.000000	0.096706
482.000000	0.089306
480.000000	0.081701
478.000000	0.075575
476.000000	0.071409
474.000000	0.065883
472.000000	0.062106
470.000000	0.056061
468.000000	0.051919
466.000000	0.051462
464.000000	0.046020
462.000000	0.041682
460.000000	0.039477
458.000000	0.038676
456.000000	0.037684
454.000000	0.035067
452.000000	0.035219
450.000000	0.035321
448.000000	0.033068
446.000000	0.030664
444.000000	0.029361
442.000000	0.031838
440.000000	0.029807
438.000000	0.039701
436.000000	0.044640
434.000000	0.054153
432.000000	0.069654
430.000000	0.084710
428.000000	0.107493
426.000000	0.137240
424.000000	0.169460
