PE UV       SUBTECH     SPECTRUM    ASCII       PEDS        4.00        
   -1
180628-6.Sample.asc
18/06/28
23:03:18.00
18/06/28
23:03:18.00
Analyst
Moxsio2 test
420.000000
1
Lambda 950
950L1201053
PerkinElmer UV WinLab 6.0.4.0738 / 1.61.00 Lambda 900

0
0
3350/16 889.8/4
0
0
VIS
1
1
1
CommonBeamDepol,RBeamAtt,SBeamAtt,universal reflectance
0
0
0
0
Program
 
0
3350/0.12 889.8/0.12
0
0
0
 
 
 
0
 
889.8
150
889.8
Front
31
on
3350/S:100 3350/R:100
 
0
0
0
 
0
 
 
 
0
 
 
0
0
8.0
4.00
4.00
False
False
202L1112213
 
0
0


0
0
#HDR
-1
-1
#GR
nm
%R
1.0
0.0
670.000000
-2.000000
126
8
1.316543
0.046413
#DATA
670.000000	0.310171
668.000000	0.303134
666.000000	0.298512
664.000000	0.294516
662.000000	0.293869
660.000000	0.292649
658.000000	0.293578
656.000000	0.295813
654.000000	0.294948
652.000000	0.302084
650.000000	0.305156
648.000000	0.311392
646.000000	0.316798
644.000000	0.326471
642.000000	0.335112
640.000000	0.342149
638.000000	0.352030
636.000000	0.364196
634.000000	0.375936
632.000000	0.388733
630.000000	0.396079
628.000000	0.414751
626.000000	0.425588
624.000000	0.439395
622.000000	0.452485
620.000000	0.463969
618.000000	0.476904
616.000000	0.494500
614.000000	0.504479
612.000000	0.517120
610.000000	0.528473
608.000000	0.543821
606.000000	0.553472
604.000000	0.564887
602.000000	0.577765
600.000000	0.587856
598.000000	0.599188
596.000000	0.607085
594.000000	0.613201
592.000000	0.624662
590.000000	0.629469
588.000000	0.637072
586.000000	0.643124
584.000000	0.647293
582.000000	0.650066
580.000000	0.652173
578.000000	0.655655
576.000000	0.653753
574.000000	0.655872
572.000000	0.653914
570.000000	0.650278
568.000000	0.647539
566.000000	0.639900
564.000000	0.636080
562.000000	0.629350
560.000000	0.625194
558.000000	0.612912
556.000000	0.602043
554.000000	0.590373
552.000000	0.579377
550.000000	0.565829
548.000000	0.554131
546.000000	0.539547
544.000000	0.527045
542.000000	0.511149
540.000000	0.495272
538.000000	0.477734
536.000000	0.459958
534.000000	0.443905
532.000000	0.425498
530.000000	0.407471
528.000000	0.389250
526.000000	0.369104
524.000000	0.352339
522.000000	0.333447
520.000000	0.315353
518.000000	0.296238
516.000000	0.278752
514.000000	0.263148
512.000000	0.245316
510.000000	0.229997
508.000000	0.213359
506.000000	0.199411
504.000000	0.185515
502.000000	0.172869
500.000000	0.158881
498.000000	0.147074
496.000000	0.135861
494.000000	0.125527
492.000000	0.115968
490.000000	0.109206
488.000000	0.098289
486.000000	0.091356
484.000000	0.081679
482.000000	0.075431
480.000000	0.070021
478.000000	0.060628
476.000000	0.056793
474.000000	0.052632
472.000000	0.051013
470.000000	0.050940
468.000000	0.048088
466.000000	0.046413
464.000000	0.049466
462.000000	0.049317
460.000000	0.051477
458.000000	0.057138
456.000000	0.061098
454.000000	0.068510
452.000000	0.081573
450.000000	0.092758
448.000000	0.105304
446.000000	0.122629
444.000000	0.147887
442.000000	0.172402
440.000000	0.206555
438.000000	0.250202
436.000000	0.302087
434.000000	0.362995
432.000000	0.438210
430.000000	0.536661
428.000000	0.640813
426.000000	0.773315
424.000000	0.921161
422.000000	1.104535
420.000000	1.316543
