PE UV       SUBTECH     SPECTRUM    ASCII       PEDS        4.00        
   -1
180627-7.Sample.asc
18/06/27
21:22:35.00
18/06/27
21:22:35.00
Analyst
moxsio2 test
420.000000
1
Lambda 950
950L1201053
PerkinElmer UV WinLab 6.0.4.0738 / 1.61.00 Lambda 900

0
0
3350/16 889.8/4
0
0
VIS
1
1
1
CommonBeamDepol,RBeamAtt,SBeamAtt,universal reflectance
0
0
0
0
Program
 
0
3350/0.12 889.8/0.12
0
0
0
 
 
 
0
 
889.8
150
889.8
Front
31
on
3350/S:100 3350/R:100
 
0
0
0
 
0
 
 
 
0
 
 
0
0
8.0
4.00
4.00
False
False
202L1112213
 
0
0


0
0
#HDR
-1
-1
#GR
nm
%R
1.0
0.0
670.000000
-2.000000
126
8
0.693773
0.018163
#DATA
670.000000	0.693773
668.000000	0.649163
666.000000	0.603946
664.000000	0.561514
662.000000	0.520559
660.000000	0.482360
658.000000	0.444415
656.000000	0.410452
654.000000	0.379883
652.000000	0.347181
650.000000	0.318033
648.000000	0.292755
646.000000	0.268293
644.000000	0.245926
642.000000	0.223882
640.000000	0.203562
638.000000	0.187225
636.000000	0.170711
634.000000	0.157367
632.000000	0.143242
630.000000	0.135161
628.000000	0.124404
626.000000	0.117740
624.000000	0.113243
622.000000	0.105779
620.000000	0.101848
618.000000	0.099019
616.000000	0.097978
614.000000	0.096914
612.000000	0.099586
610.000000	0.101862
608.000000	0.104793
606.000000	0.110311
604.000000	0.113411
602.000000	0.117441
600.000000	0.124520
598.000000	0.131324
596.000000	0.139851
594.000000	0.147117
592.000000	0.154066
590.000000	0.162042
588.000000	0.175130
586.000000	0.183159
584.000000	0.190077
582.000000	0.197800
580.000000	0.206888
578.000000	0.218750
576.000000	0.225650
574.000000	0.233314
572.000000	0.243047
570.000000	0.251005
568.000000	0.261940
566.000000	0.267186
564.000000	0.275810
562.000000	0.282277
560.000000	0.291460
558.000000	0.294242
556.000000	0.297040
554.000000	0.302258
552.000000	0.306668
550.000000	0.308509
548.000000	0.311044
546.000000	0.312538
544.000000	0.313562
542.000000	0.314344
540.000000	0.313499
538.000000	0.312231
536.000000	0.309899
534.000000	0.306472
532.000000	0.302818
530.000000	0.297566
528.000000	0.293536
526.000000	0.288528
524.000000	0.281297
522.000000	0.273873
520.000000	0.268219
518.000000	0.259906
516.000000	0.252526
514.000000	0.244108
512.000000	0.235651
510.000000	0.227805
508.000000	0.217667
506.000000	0.208550
504.000000	0.199756
502.000000	0.191320
500.000000	0.181801
498.000000	0.173256
496.000000	0.163557
494.000000	0.155106
492.000000	0.145424
490.000000	0.140137
488.000000	0.128129
486.000000	0.122500
484.000000	0.113217
482.000000	0.103898
480.000000	0.096070
478.000000	0.086512
476.000000	0.081682
474.000000	0.076265
472.000000	0.070149
470.000000	0.067829
468.000000	0.061760
466.000000	0.058532
464.000000	0.055051
462.000000	0.050567
460.000000	0.049750
458.000000	0.045844
456.000000	0.043474
454.000000	0.041763
452.000000	0.038137
450.000000	0.031276
448.000000	0.032480
446.000000	0.028290
444.000000	0.023511
442.000000	0.020345
440.000000	0.020560
438.000000	0.018163
436.000000	0.019697
434.000000	0.021179
432.000000	0.022101
430.000000	0.028973
428.000000	0.036668
426.000000	0.045013
424.000000	0.071115
422.000000	0.095367
420.000000	0.123252
