PE UV       SUBTECH     SPECTRUM    ASCII       PEDS        4.00        
   -1
180628-5.Sample.asc
18/06/28
21:37:05.00
18/06/28
21:37:05.00
Analyst
Moxsio2 test
420.000000
1
Lambda 950
950L1201053
PerkinElmer UV WinLab 6.0.4.0738 / 1.61.00 Lambda 900

0
0
3350/16 889.8/4
0
0
VIS
1
1
1
CommonBeamDepol,RBeamAtt,SBeamAtt,universal reflectance
0
0
0
0
Program
 
0
3350/0.12 889.8/0.12
0
0
0
 
 
 
0
 
889.8
150
889.8
Front
31
on
3350/S:100 3350/R:100
 
0
0
0
 
0
 
 
 
0
 
 
0
0
8.0
4.00
4.00
False
False
202L1112213
 
0
0


0
0
#HDR
-1
-1
#GR
nm
%R
1.0
0.0
670.000000
-2.000000
126
8
0.821242
0.037494
#DATA
670.000000	0.821242
668.000000	0.772711
666.000000	0.723789
664.000000	0.678347
662.000000	0.632190
660.000000	0.589600
658.000000	0.546079
656.000000	0.509497
654.000000	0.471678
652.000000	0.436438
650.000000	0.407063
648.000000	0.373225
646.000000	0.343865
644.000000	0.318907
642.000000	0.291167
640.000000	0.269291
638.000000	0.247319
636.000000	0.227651
634.000000	0.210939
632.000000	0.195634
630.000000	0.180624
628.000000	0.165567
626.000000	0.156884
624.000000	0.148704
622.000000	0.140367
620.000000	0.134560
618.000000	0.129040
616.000000	0.127045
614.000000	0.120577
612.000000	0.120872
610.000000	0.117103
608.000000	0.114991
606.000000	0.121610
604.000000	0.123968
602.000000	0.126143
600.000000	0.128281
598.000000	0.135254
596.000000	0.139852
594.000000	0.144853
592.000000	0.151471
590.000000	0.158949
588.000000	0.167554
586.000000	0.174173
584.000000	0.181265
582.000000	0.191471
580.000000	0.199157
578.000000	0.208773
576.000000	0.216203
574.000000	0.223991
572.000000	0.233243
570.000000	0.242275
568.000000	0.247782
566.000000	0.254926
564.000000	0.259579
562.000000	0.265828
560.000000	0.278304
558.000000	0.281022
556.000000	0.283305
554.000000	0.287882
552.000000	0.296082
550.000000	0.296689
548.000000	0.301448
546.000000	0.303896
544.000000	0.305265
542.000000	0.305953
540.000000	0.307143
538.000000	0.306374
536.000000	0.305422
534.000000	0.303900
532.000000	0.301018
530.000000	0.298024
528.000000	0.296746
526.000000	0.290203
524.000000	0.285378
522.000000	0.281003
520.000000	0.274383
518.000000	0.269233
516.000000	0.262209
514.000000	0.255482
512.000000	0.248175
510.000000	0.241438
508.000000	0.233509
506.000000	0.226301
504.000000	0.218085
502.000000	0.210611
500.000000	0.203457
498.000000	0.195566
496.000000	0.188640
494.000000	0.181514
492.000000	0.174997
490.000000	0.165434
488.000000	0.159457
486.000000	0.152509
484.000000	0.142362
482.000000	0.134927
480.000000	0.127872
478.000000	0.120044
476.000000	0.114393
474.000000	0.108148
472.000000	0.103474
470.000000	0.096799
468.000000	0.091008
466.000000	0.085572
464.000000	0.083566
462.000000	0.078057
460.000000	0.073487
458.000000	0.069083
456.000000	0.066564
454.000000	0.063984
452.000000	0.057392
450.000000	0.054442
448.000000	0.059886
446.000000	0.050764
444.000000	0.046048
442.000000	0.040948
440.000000	0.041476
438.000000	0.040365
436.000000	0.039852
434.000000	0.037494
432.000000	0.041330
430.000000	0.053796
428.000000	0.061257
426.000000	0.076401
424.000000	0.097758
422.000000	0.118403
420.000000	0.151943
