PE UV       SUBTECH     SPECTRUM    ASCII       PEDS        4.00        
   -1
180621-1 z.Sample.asc
18/06/21
10:40:39.00
18/06/21
10:40:39.00
Analyst
Interface to Air
400.000000
1
Lambda 950
950L1201053
PerkinElmer UV WinLab 6.0.4.0738 / 1.61.00 Lambda 900

0
0
3350/16 889.8/4
0
0
VIS
1
1
1
CommonBeamDepol,RBeamAtt,SBeamAtt,universal reflectance
0
0
0
0
Program
 
0
3350/1 889.8/0.28
0
0
0
 
 
 
0
 
889.8
150
889.8
Front
31
on
3350/S:100 3350/R:100
 
0
0
0
 
0
 
 
 
0
 
 
0
0
8.0
4.00
4.00
False
False
202L1112213
 
0
0


0
0
#HDR
-1
-1
#GR
nm
%R
1.0
0.0
700.000000
-2.000000
151
8
1.856856
0.016526
#DATA
700.000000	1.856856
698.000000	1.775678
696.000000	1.691764
694.000000	1.616334
692.000000	1.539607
690.000000	1.464683
688.000000	1.391376
686.000000	1.319339
684.000000	1.250071
682.000000	1.183718
680.000000	1.122804
678.000000	1.059304
676.000000	0.998678
674.000000	0.941850
672.000000	0.887966
670.000000	0.832760
668.000000	0.782165
666.000000	0.732239
664.000000	0.685418
662.000000	0.643089
660.000000	0.598503
658.000000	0.557644
656.000000	0.519124
654.000000	0.482822
652.000000	0.451817
650.000000	0.415846
648.000000	0.386054
646.000000	0.358219
644.000000	0.331857
642.000000	0.308059
640.000000	0.282592
638.000000	0.264174
636.000000	0.243310
634.000000	0.226183
632.000000	0.212116
630.000000	0.196070
628.000000	0.183769
626.000000	0.173264
624.000000	0.162993
622.000000	0.157576
620.000000	0.147860
618.000000	0.142409
616.000000	0.137642
614.000000	0.135632
612.000000	0.134172
610.000000	0.133943
608.000000	0.133608
606.000000	0.134571
604.000000	0.137503
602.000000	0.138564
600.000000	0.143792
598.000000	0.145414
596.000000	0.150686
594.000000	0.157909
592.000000	0.163080
590.000000	0.169101
588.000000	0.177098
586.000000	0.183336
584.000000	0.190699
582.000000	0.196028
580.000000	0.204335
578.000000	0.212554
576.000000	0.219284
574.000000	0.225855
572.000000	0.233781
570.000000	0.241042
568.000000	0.247645
566.000000	0.252237
564.000000	0.258570
562.000000	0.265548
560.000000	0.273160
558.000000	0.275383
556.000000	0.277710
554.000000	0.282387
552.000000	0.285114
550.000000	0.287069
548.000000	0.289013
546.000000	0.290299
544.000000	0.290921
542.000000	0.290799
540.000000	0.288848
538.000000	0.288065
536.000000	0.285361
534.000000	0.282313
532.000000	0.279136
530.000000	0.274524
528.000000	0.270253
526.000000	0.264388
524.000000	0.258505
522.000000	0.251838
520.000000	0.245014
518.000000	0.238147
516.000000	0.231022
514.000000	0.223355
512.000000	0.214920
510.000000	0.205719
508.000000	0.197585
506.000000	0.189181
504.000000	0.180506
502.000000	0.172250
500.000000	0.163735
498.000000	0.155795
496.000000	0.147353
494.000000	0.138792
492.000000	0.131650
490.000000	0.124106
488.000000	0.114177
486.000000	0.107724
484.000000	0.097768
482.000000	0.091021
480.000000	0.084878
478.000000	0.077409
476.000000	0.074176
474.000000	0.069615
472.000000	0.065139
470.000000	0.060906
468.000000	0.056529
466.000000	0.052691
464.000000	0.049080
462.000000	0.046437
460.000000	0.042582
458.000000	0.039944
456.000000	0.039260
454.000000	0.036971
452.000000	0.035835
450.000000	0.031634
448.000000	0.029067
446.000000	0.028355
444.000000	0.024900
442.000000	0.023489
440.000000	0.020689
438.000000	0.018604
436.000000	0.016526
434.000000	0.019600
432.000000	0.023408
430.000000	0.024721
428.000000	0.036889
426.000000	0.048977
424.000000	0.065363
422.000000	0.085928
420.000000	0.117169
418.000000	0.156009
416.000000	0.205195
414.000000	0.270164
412.000000	0.351811
410.000000	0.449464
408.000000	0.578404
406.000000	0.725134
404.000000	0.906312
402.000000	1.123274
400.000000	1.378627
