PE UV       SUBTECH     SPECTRUM    ASCII       PEDS        4.00        
   -1
180627-1 Z REFL.Sample.asc
18/06/27
09:34:28.00
18/06/27
09:34:28.00
Analyst
Moxtek
420.000000
1
Lambda 950
950L1201053
PerkinElmer UV WinLab 6.0.4.0738 / 1.61.00 Lambda 900

0
0
3350/16 889.8/4
0
0
VIS
1
1
1
CommonBeamDepol,RBeamAtt,SBeamAtt,universal reflectance
0
0
0
0
Program
 
0
3350/0.12 889.8/0.12
0
0
0
 
 
 
0
 
889.8
150
889.8
Front
31
on
3350/S:100 3350/R:100
 
0
0
0
 
0
 
 
 
0
 
 
0
0
8.0
4.00
4.00
False
False
202L1112213
 
0
0


0
0
#HDR
-1
-1
#GR
nm
%R
1.0
0.0
670.000000
-2.000000
126
8
0.622144
0.036955
#DATA
670.000000	0.622144
668.000000	0.577826
666.000000	0.538849
664.000000	0.504625
662.000000	0.467578
660.000000	0.433922
658.000000	0.400145
656.000000	0.371052
654.000000	0.344067
652.000000	0.317628
650.000000	0.290925
648.000000	0.266146
646.000000	0.249352
644.000000	0.226936
642.000000	0.209717
640.000000	0.193754
638.000000	0.179267
636.000000	0.166269
634.000000	0.155192
632.000000	0.145873
630.000000	0.134612
628.000000	0.131108
626.000000	0.126359
624.000000	0.122264
622.000000	0.118885
620.000000	0.116122
618.000000	0.114365
616.000000	0.114336
614.000000	0.116215
612.000000	0.115790
610.000000	0.118882
608.000000	0.121092
606.000000	0.124880
604.000000	0.132397
602.000000	0.136922
600.000000	0.142666
598.000000	0.148251
596.000000	0.160305
594.000000	0.163045
592.000000	0.171712
590.000000	0.178245
588.000000	0.185864
586.000000	0.195683
584.000000	0.204521
582.000000	0.210076
580.000000	0.219039
578.000000	0.226261
576.000000	0.233168
574.000000	0.240169
572.000000	0.246777
570.000000	0.255699
568.000000	0.260778
566.000000	0.265274
564.000000	0.271092
562.000000	0.276010
560.000000	0.287223
558.000000	0.286677
556.000000	0.288470
554.000000	0.292261
552.000000	0.295728
550.000000	0.294493
548.000000	0.299179
546.000000	0.299023
544.000000	0.299281
542.000000	0.299041
540.000000	0.296248
538.000000	0.295009
536.000000	0.292947
534.000000	0.290030
532.000000	0.287144
530.000000	0.283151
528.000000	0.278093
526.000000	0.274094
524.000000	0.268096
522.000000	0.262983
520.000000	0.255834
518.000000	0.250361
516.000000	0.243022
514.000000	0.237240
512.000000	0.231318
510.000000	0.224656
508.000000	0.217198
506.000000	0.211422
504.000000	0.203925
502.000000	0.199804
500.000000	0.193140
498.000000	0.187643
496.000000	0.181797
494.000000	0.178718
492.000000	0.170709
490.000000	0.167372
488.000000	0.163441
486.000000	0.158075
484.000000	0.149144
482.000000	0.146464
480.000000	0.142561
478.000000	0.137416
476.000000	0.133414
474.000000	0.130111
472.000000	0.126319
470.000000	0.126634
468.000000	0.121516
466.000000	0.118036
464.000000	0.116480
462.000000	0.113096
460.000000	0.111542
458.000000	0.105887
456.000000	0.104338
454.000000	0.099781
452.000000	0.097234
450.000000	0.095018
448.000000	0.087436
446.000000	0.079145
444.000000	0.071189
442.000000	0.066521
440.000000	0.061446
438.000000	0.056462
436.000000	0.047208
434.000000	0.041003
432.000000	0.040041
430.000000	0.036955
428.000000	0.038137
426.000000	0.040860
424.000000	0.051157
422.000000	0.064840
420.000000	0.089704
