PE UV       SUBTECH     SPECTRUM    ASCII       PEDS        4.00        
   -1
180621-11R.Sample.asc
18/06/21
22:29:01.00
18/06/21
22:29:01.00
Analyst
MOXSIO2 test
400.000000
1
Lambda 950
950L1201053
PerkinElmer UV WinLab 6.0.4.0738 / 1.61.00 Lambda 900

0
0
3350/16 889.8/4
0
0
VIS
1
1
1
CommonBeamDepol,RBeamAtt,SBeamAtt,universal reflectance
0
0
0
0
Program
 
0
3350/1 889.8/0.28
0
0
0
 
 
 
0
 
889.8
150
889.8
Front
31
on
3350/S:100 3350/R:100
 
0
0
0
 
0
 
 
 
0
 
 
0
0
8.0
4.00
4.00
False
False
202L1112213
 
0
0


0
0
#HDR
-1
-1
#GR
nm
%R
1.0
0.0
700.000000
-2.000000
151
8
1.839387
0.075470
#DATA
700.000000	1.732710
698.000000	1.649738
696.000000	1.572283
694.000000	1.500023
692.000000	1.424156
690.000000	1.353240
688.000000	1.281498
686.000000	1.211127
684.000000	1.146957
682.000000	1.083699
680.000000	1.025271
678.000000	0.967029
676.000000	0.910797
674.000000	0.857211
672.000000	0.806692
670.000000	0.759236
668.000000	0.708412
666.000000	0.668007
664.000000	0.626697
662.000000	0.588130
660.000000	0.548568
658.000000	0.513383
656.000000	0.480949
654.000000	0.447850
652.000000	0.421019
650.000000	0.394950
648.000000	0.369939
646.000000	0.349162
644.000000	0.327953
642.000000	0.309863
640.000000	0.294194
638.000000	0.277442
636.000000	0.267185
634.000000	0.255484
632.000000	0.247345
630.000000	0.239243
628.000000	0.233748
626.000000	0.230391
624.000000	0.227850
622.000000	0.227814
620.000000	0.227664
618.000000	0.228556
616.000000	0.232075
614.000000	0.235702
612.000000	0.240813
610.000000	0.246954
608.000000	0.256033
606.000000	0.264008
604.000000	0.273243
602.000000	0.282683
600.000000	0.294610
598.000000	0.304757
596.000000	0.316044
594.000000	0.328381
592.000000	0.341085
590.000000	0.353495
588.000000	0.366867
586.000000	0.380170
584.000000	0.393052
582.000000	0.406561
580.000000	0.419198
578.000000	0.432761
576.000000	0.445242
574.000000	0.457430
572.000000	0.469769
570.000000	0.480305
568.000000	0.491904
566.000000	0.502381
564.000000	0.511622
562.000000	0.520389
560.000000	0.531077
558.000000	0.536687
556.000000	0.542787
554.000000	0.549797
552.000000	0.554482
550.000000	0.556395
548.000000	0.560235
546.000000	0.562413
544.000000	0.563829
542.000000	0.563689
540.000000	0.562311
538.000000	0.559739
536.000000	0.556049
534.000000	0.551116
532.000000	0.546641
530.000000	0.539595
528.000000	0.533938
526.000000	0.524432
524.000000	0.514759
522.000000	0.504817
520.000000	0.493525
518.000000	0.481862
516.000000	0.469642
514.000000	0.456428
512.000000	0.442985
510.000000	0.428213
508.000000	0.414037
506.000000	0.399850
504.000000	0.384832
502.000000	0.370126
500.000000	0.354664
498.000000	0.339750
496.000000	0.323686
494.000000	0.307550
492.000000	0.292297
490.000000	0.276536
488.000000	0.259252
486.000000	0.243202
484.000000	0.227552
482.000000	0.212588
480.000000	0.198322
478.000000	0.182982
476.000000	0.171459
474.000000	0.160275
472.000000	0.149157
470.000000	0.139469
468.000000	0.129166
466.000000	0.119704
464.000000	0.113229
462.000000	0.105485
460.000000	0.098202
458.000000	0.093073
456.000000	0.088540
454.000000	0.085595
452.000000	0.081678
450.000000	0.079987
448.000000	0.077173
446.000000	0.078085
444.000000	0.075501
442.000000	0.075470
440.000000	0.080803
438.000000	0.084450
436.000000	0.089313
434.000000	0.099481
432.000000	0.114453
430.000000	0.128529
428.000000	0.148426
426.000000	0.175878
424.000000	0.203721
422.000000	0.239567
420.000000	0.291149
418.000000	0.349041
416.000000	0.418940
414.000000	0.502312
412.000000	0.610668
410.000000	0.737876
408.000000	0.887943
406.000000	1.068663
404.000000	1.284874
402.000000	1.535195
400.000000	1.839387
