PE UV       SUBTECH     SPECTRUM    ASCII       PEDS        4.00        
   -1
180627-3 Z Refl.Sample.asc
18/06/27
13:05:26.00
18/06/27
13:05:26.00
Analyst
Moxtek
420.000000
1
Lambda 950
950L1201053
PerkinElmer UV WinLab 6.0.4.0738 / 1.61.00 Lambda 900

0
0
3350/16 889.8/4
0
0
VIS
1
1
1
CommonBeamDepol,RBeamAtt,SBeamAtt,universal reflectance
0
0
0
0
Program
 
0
3350/0.12 889.8/0.12
0
0
0
 
 
 
0
 
889.8
150
889.8
Front
31
on
3350/S:100 3350/R:100
 
0
0
0
 
0
 
 
 
0
 
 
0
0
8.0
4.00
4.00
False
False
202L1112213
 
0
0


0
0
#HDR
-1
-1
#GR
nm
%R
1.0
0.0
670.000000
-2.000000
126
8
0.938746
0.052138
#DATA
670.000000	0.938746
668.000000	0.882870
666.000000	0.827919
664.000000	0.776622
662.000000	0.729655
660.000000	0.679745
658.000000	0.635363
656.000000	0.589763
654.000000	0.552012
652.000000	0.513252
650.000000	0.477319
648.000000	0.441733
646.000000	0.409472
644.000000	0.380196
642.000000	0.352293
640.000000	0.324318
638.000000	0.300740
636.000000	0.279667
634.000000	0.257897
632.000000	0.240875
630.000000	0.221804
628.000000	0.204995
626.000000	0.195302
624.000000	0.180930
622.000000	0.169456
620.000000	0.161967
618.000000	0.153455
616.000000	0.150397
614.000000	0.144692
612.000000	0.139007
610.000000	0.136822
608.000000	0.137192
606.000000	0.136931
604.000000	0.137620
602.000000	0.142117
600.000000	0.144176
598.000000	0.146681
596.000000	0.152944
594.000000	0.157436
592.000000	0.164316
590.000000	0.171037
588.000000	0.178328
586.000000	0.186378
584.000000	0.193969
582.000000	0.200690
580.000000	0.209121
578.000000	0.219458
576.000000	0.228231
574.000000	0.237859
572.000000	0.246951
570.000000	0.255710
568.000000	0.263593
566.000000	0.270522
564.000000	0.280184
562.000000	0.287139
560.000000	0.300767
558.000000	0.300072
556.000000	0.307453
554.000000	0.315214
552.000000	0.320258
550.000000	0.324009
548.000000	0.329288
546.000000	0.332647
544.000000	0.334736
542.000000	0.336689
540.000000	0.340203
538.000000	0.341428
536.000000	0.343304
534.000000	0.343908
532.000000	0.342054
530.000000	0.339938
528.000000	0.338952
526.000000	0.335357
524.000000	0.333162
522.000000	0.328591
520.000000	0.322766
518.000000	0.319581
516.000000	0.312887
514.000000	0.307219
512.000000	0.299471
510.000000	0.293603
508.000000	0.285990
506.000000	0.277907
504.000000	0.271137
502.000000	0.262595
500.000000	0.254364
498.000000	0.245918
496.000000	0.237820
494.000000	0.230561
492.000000	0.221581
490.000000	0.212589
488.000000	0.202055
486.000000	0.193269
484.000000	0.185015
482.000000	0.172320
480.000000	0.163218
478.000000	0.156110
476.000000	0.146700
474.000000	0.138693
472.000000	0.132140
470.000000	0.125134
468.000000	0.117002
466.000000	0.109610
464.000000	0.102974
462.000000	0.097647
460.000000	0.092022
458.000000	0.085495
456.000000	0.081486
454.000000	0.077055
452.000000	0.072244
450.000000	0.070313
448.000000	0.065389
446.000000	0.061200
444.000000	0.060921
442.000000	0.059025
440.000000	0.052138
438.000000	0.055942
436.000000	0.058270
434.000000	0.059548
432.000000	0.064519
430.000000	0.078261
428.000000	0.086889
426.000000	0.105813
424.000000	0.130620
422.000000	0.154014
420.000000	0.195802
