PE UV       SUBTECH     SPECTRUM    ASCII       PEDS        4.00        
   -1
180627-2 Z REFL.Sample.asc
18/06/27
13:01:03.00
18/06/27
13:01:03.00
Analyst
Moxtek
420.000000
1
Lambda 950
950L1201053
PerkinElmer UV WinLab 6.0.4.0738 / 1.61.00 Lambda 900

0
0
3350/16 889.8/4
0
0
VIS
1
1
1
CommonBeamDepol,RBeamAtt,SBeamAtt,universal reflectance
0
0
0
0
Program
 
0
3350/0.12 889.8/0.12
0
0
0
 
 
 
0
 
889.8
150
889.8
Front
31
on
3350/S:100 3350/R:100
 
0
0
0
 
0
 
 
 
0
 
 
0
0
8.0
4.00
4.00
False
False
202L1112213
 
0
0


0
0
#HDR
-1
-1
#GR
nm
%R
1.0
0.0
670.000000
-2.000000
126
8
0.795939
0.014452
#DATA
670.000000	0.795939
668.000000	0.745094
666.000000	0.698291
664.000000	0.650090
662.000000	0.608214
660.000000	0.568537
658.000000	0.526008
656.000000	0.493314
654.000000	0.456072
652.000000	0.421449
650.000000	0.390106
648.000000	0.359340
646.000000	0.331185
644.000000	0.306074
642.000000	0.280477
640.000000	0.255940
638.000000	0.234802
636.000000	0.216393
634.000000	0.198864
632.000000	0.181878
630.000000	0.164787
628.000000	0.152107
626.000000	0.140737
624.000000	0.130778
622.000000	0.120503
620.000000	0.111341
618.000000	0.104412
616.000000	0.098812
614.000000	0.094910
612.000000	0.092433
610.000000	0.086238
608.000000	0.089091
606.000000	0.087643
604.000000	0.088022
602.000000	0.087672
600.000000	0.089460
598.000000	0.094142
596.000000	0.098595
594.000000	0.102985
592.000000	0.109105
590.000000	0.113985
588.000000	0.118885
586.000000	0.127663
584.000000	0.133563
582.000000	0.141220
580.000000	0.147121
578.000000	0.155712
576.000000	0.162260
574.000000	0.170345
572.000000	0.176445
570.000000	0.182281
568.000000	0.190216
566.000000	0.195517
564.000000	0.201356
562.000000	0.207368
560.000000	0.216158
558.000000	0.216565
556.000000	0.220057
554.000000	0.223869
552.000000	0.226370
550.000000	0.227072
548.000000	0.230755
546.000000	0.231995
544.000000	0.231540
542.000000	0.231553
540.000000	0.230089
538.000000	0.228647
536.000000	0.226467
534.000000	0.223880
532.000000	0.220533
530.000000	0.217257
528.000000	0.212953
526.000000	0.208033
524.000000	0.201478
522.000000	0.197203
520.000000	0.191068
518.000000	0.185129
516.000000	0.179644
514.000000	0.172048
512.000000	0.165834
510.000000	0.158624
508.000000	0.152970
506.000000	0.147272
504.000000	0.139965
502.000000	0.133739
500.000000	0.128340
498.000000	0.122039
496.000000	0.115919
494.000000	0.112577
492.000000	0.107340
490.000000	0.102177
488.000000	0.094248
486.000000	0.092504
484.000000	0.086292
482.000000	0.077352
480.000000	0.071909
478.000000	0.069879
476.000000	0.065118
474.000000	0.063998
472.000000	0.059075
470.000000	0.056219
468.000000	0.055239
466.000000	0.052125
464.000000	0.051639
462.000000	0.048944
460.000000	0.049123
458.000000	0.046393
456.000000	0.046486
454.000000	0.044307
452.000000	0.044166
450.000000	0.044179
448.000000	0.041777
446.000000	0.041002
444.000000	0.033872
442.000000	0.036783
440.000000	0.025824
438.000000	0.023625
436.000000	0.025558
434.000000	0.015606
432.000000	0.015854
430.000000	0.014452
428.000000	0.018015
426.000000	0.020353
424.000000	0.026492
422.000000	0.038135
420.000000	0.053144
