PE UV       SUBTECH     SPECTRUM    ASCII       PEDS        4.00        
   -1
180628-2.Sample.asc
18/06/28
16:43:31.00
18/06/28
16:43:31.00
Analyst
Moxsio2 test
420.000000
1
Lambda 950
950L1201053
PerkinElmer UV WinLab 6.0.4.0738 / 1.61.00 Lambda 900

0
0
3350/16 889.8/4
0
0
VIS
1
1
1
CommonBeamDepol,RBeamAtt,SBeamAtt,universal reflectance
0
0
0
0
Program
 
0
3350/0.12 889.8/0.12
0
0
0
 
 
 
0
 
889.8
150
889.8
Front
31
on
3350/S:100 3350/R:100
 
0
0
0
 
0
 
 
 
0
 
 
0
0
8.0
4.00
4.00
False
False
202L1112213
 
0
0


0
0
#HDR
-1
-1
#GR
nm
%R
1.0
0.0
670.000000
-2.000000
126
8
0.827029
0.024814
#DATA
670.000000	0.827029
668.000000	0.776464
666.000000	0.728317
664.000000	0.681248
662.000000	0.636415
660.000000	0.592479
658.000000	0.554611
656.000000	0.518726
654.000000	0.481555
652.000000	0.449892
650.000000	0.415335
648.000000	0.383124
646.000000	0.357054
644.000000	0.334075
642.000000	0.307425
640.000000	0.285674
638.000000	0.260693
636.000000	0.246580
634.000000	0.223827
632.000000	0.210955
630.000000	0.196390
628.000000	0.183744
626.000000	0.173103
624.000000	0.163554
622.000000	0.153122
620.000000	0.145576
618.000000	0.144121
616.000000	0.139679
614.000000	0.134548
612.000000	0.133049
610.000000	0.130442
608.000000	0.132554
606.000000	0.132017
604.000000	0.131665
602.000000	0.134734
600.000000	0.136688
598.000000	0.141090
596.000000	0.146375
594.000000	0.149511
592.000000	0.155673
590.000000	0.159001
588.000000	0.166106
586.000000	0.171640
584.000000	0.178764
582.000000	0.185910
580.000000	0.192716
578.000000	0.200411
576.000000	0.205090
574.000000	0.212197
572.000000	0.218896
570.000000	0.224168
568.000000	0.230116
566.000000	0.236146
564.000000	0.239860
562.000000	0.245755
560.000000	0.254904
558.000000	0.253220
556.000000	0.256309
554.000000	0.260663
552.000000	0.261436
550.000000	0.263961
548.000000	0.267628
546.000000	0.267470
544.000000	0.269682
542.000000	0.270075
540.000000	0.266755
538.000000	0.267882
536.000000	0.265426
534.000000	0.263301
532.000000	0.259620
530.000000	0.256034
528.000000	0.252645
526.000000	0.246982
524.000000	0.241857
522.000000	0.238300
520.000000	0.232684
518.000000	0.226259
516.000000	0.218361
514.000000	0.212035
512.000000	0.204632
510.000000	0.197429
508.000000	0.189650
506.000000	0.183136
504.000000	0.174821
502.000000	0.169830
500.000000	0.162333
498.000000	0.154060
496.000000	0.147853
494.000000	0.142903
492.000000	0.133433
490.000000	0.128200
488.000000	0.120646
486.000000	0.115073
484.000000	0.103684
482.000000	0.097517
480.000000	0.091948
478.000000	0.086480
476.000000	0.078807
474.000000	0.075538
472.000000	0.071901
470.000000	0.068559
468.000000	0.064285
466.000000	0.060635
464.000000	0.057780
462.000000	0.055012
460.000000	0.050668
458.000000	0.051539
456.000000	0.047965
454.000000	0.047263
452.000000	0.046391
450.000000	0.042192
448.000000	0.041107
446.000000	0.038931
444.000000	0.031963
442.000000	0.031204
440.000000	0.029077
438.000000	0.028536
436.000000	0.025661
434.000000	0.024814
432.000000	0.024832
430.000000	0.030238
428.000000	0.036259
426.000000	0.046166
424.000000	0.062676
422.000000	0.086646
420.000000	0.113936
