PE UV       SUBTECH     SPECTRUM    ASCII       PEDS        4.00        
   -1
180628-4.Sample.asc
18/06/28
21:18:17.00
18/06/28
21:18:17.00
Analyst
Moxsio2 test
420.000000
1
Lambda 950
950L1201053
PerkinElmer UV WinLab 6.0.4.0738 / 1.61.00 Lambda 900

0
0
3350/16 889.8/4
0
0
VIS
1
1
1
CommonBeamDepol,RBeamAtt,SBeamAtt,universal reflectance
0
0
0
0
Program
 
0
3350/0.12 889.8/0.12
0
0
0
 
 
 
0
 
889.8
150
889.8
Front
31
on
3350/S:100 3350/R:100
 
0
0
0
 
0
 
 
 
0
 
 
0
0
8.0
4.00
4.00
False
False
202L1112213
 
0
0


0
0
#HDR
-1
-1
#GR
nm
%R
1.0
0.0
670.000000
-2.000000
126
8
0.650805
0.037462
#DATA
670.000000	0.650805
668.000000	0.609961
666.000000	0.574045
664.000000	0.537733
662.000000	0.507462
660.000000	0.473614
658.000000	0.445348
656.000000	0.420649
654.000000	0.396557
652.000000	0.371417
650.000000	0.349471
648.000000	0.331553
646.000000	0.317585
644.000000	0.298610
642.000000	0.287241
640.000000	0.272960
638.000000	0.261846
636.000000	0.257563
634.000000	0.248142
632.000000	0.240665
630.000000	0.236377
628.000000	0.232444
626.000000	0.231282
624.000000	0.231511
622.000000	0.234104
620.000000	0.234896
618.000000	0.238819
616.000000	0.242565
614.000000	0.247064
612.000000	0.253413
610.000000	0.258306
608.000000	0.265455
606.000000	0.273179
604.000000	0.280674
602.000000	0.289455
600.000000	0.297282
598.000000	0.308271
596.000000	0.315326
594.000000	0.326376
592.000000	0.336376
590.000000	0.343216
588.000000	0.354517
586.000000	0.363902
584.000000	0.374623
582.000000	0.385896
580.000000	0.395074
578.000000	0.403334
576.000000	0.410282
574.000000	0.417731
572.000000	0.425606
570.000000	0.431894
568.000000	0.438699
566.000000	0.442176
564.000000	0.447815
562.000000	0.451230
560.000000	0.458613
558.000000	0.457028
556.000000	0.458231
554.000000	0.458861
552.000000	0.458957
550.000000	0.458037
548.000000	0.455737
546.000000	0.453458
544.000000	0.450328
542.000000	0.446171
540.000000	0.441374
538.000000	0.434101
536.000000	0.426778
534.000000	0.419892
532.000000	0.410948
530.000000	0.401158
528.000000	0.391105
526.000000	0.379819
524.000000	0.368132
522.000000	0.357191
520.000000	0.345247
518.000000	0.332083
516.000000	0.319551
514.000000	0.306248
512.000000	0.292605
510.000000	0.278953
508.000000	0.266361
506.000000	0.252943
504.000000	0.240421
502.000000	0.227879
500.000000	0.216188
498.000000	0.202731
496.000000	0.192385
494.000000	0.178790
492.000000	0.167869
490.000000	0.157283
488.000000	0.145935
486.000000	0.135338
484.000000	0.123049
482.000000	0.115159
480.000000	0.104137
478.000000	0.093470
476.000000	0.086485
474.000000	0.080602
472.000000	0.072714
470.000000	0.070730
468.000000	0.062681
466.000000	0.057762
464.000000	0.055234
462.000000	0.051223
460.000000	0.048658
458.000000	0.045730
456.000000	0.042562
454.000000	0.042252
452.000000	0.042367
450.000000	0.037462
448.000000	0.041094
446.000000	0.040637
444.000000	0.038959
442.000000	0.039924
440.000000	0.040488
438.000000	0.042491
436.000000	0.053270
434.000000	0.062468
432.000000	0.072361
430.000000	0.085892
428.000000	0.105019
426.000000	0.128556
424.000000	0.158066
422.000000	0.200996
420.000000	0.251798
