PE UV       SUBTECH     SPECTRUM    ASCII       PEDS        4.00        
   -1
180629-2 Z REFL.Sample.asc
18/06/29
12:53:20.00
18/06/29
12:53:20.00
Analyst
Moxtek
420.000000
1
Lambda 950
950L1201053
PerkinElmer UV WinLab 6.0.4.0738 / 1.61.00 Lambda 900

0
0
3350/16 889.8/4
0
0
VIS
1
1
1
CommonBeamDepol,RBeamAtt,SBeamAtt,universal reflectance
0
0
0
0
Program
 
0
3350/0.12 889.8/0.12
0
0
0
 
 
 
0
 
889.8
150
889.8
Front
31
on
3350/S:100 3350/R:100
 
0
0
0
 
0
 
 
 
0
 
 
0
0
8.0
4.00
4.00
False
False
202L1112213
 
0
0


0
0
#HDR
-1
-1
#GR
nm
%R
1.0
0.0
670.000000
-2.000000
126
8
0.825774
0.018089
#DATA
670.000000	0.825774
668.000000	0.774777
666.000000	0.721924
664.000000	0.679856
662.000000	0.633479
660.000000	0.588639
658.000000	0.545734
656.000000	0.511072
654.000000	0.473667
652.000000	0.435606
650.000000	0.405436
648.000000	0.374874
646.000000	0.347425
644.000000	0.320735
642.000000	0.296543
640.000000	0.272386
638.000000	0.250587
636.000000	0.232698
634.000000	0.216974
632.000000	0.200304
630.000000	0.185715
628.000000	0.171684
626.000000	0.161409
624.000000	0.153502
622.000000	0.142752
620.000000	0.136644
618.000000	0.131223
616.000000	0.128699
614.000000	0.123502
612.000000	0.123185
610.000000	0.117716
608.000000	0.122619
606.000000	0.122919
604.000000	0.125372
602.000000	0.128861
600.000000	0.133019
598.000000	0.138646
596.000000	0.141353
594.000000	0.147862
592.000000	0.152343
590.000000	0.158363
588.000000	0.169425
586.000000	0.174875
584.000000	0.182491
582.000000	0.188185
580.000000	0.196837
578.000000	0.205449
576.000000	0.212679
574.000000	0.219224
572.000000	0.229426
570.000000	0.235801
568.000000	0.244093
566.000000	0.247504
564.000000	0.254026
562.000000	0.261487
560.000000	0.270556
558.000000	0.269661
556.000000	0.274419
554.000000	0.279438
552.000000	0.280935
550.000000	0.281519
548.000000	0.283449
546.000000	0.285702
544.000000	0.287326
542.000000	0.284701
540.000000	0.285750
538.000000	0.284418
536.000000	0.280700
534.000000	0.277428
532.000000	0.276141
530.000000	0.271759
528.000000	0.267743
526.000000	0.260866
524.000000	0.254551
522.000000	0.249012
520.000000	0.241264
518.000000	0.233793
516.000000	0.226973
514.000000	0.218901
512.000000	0.210711
510.000000	0.202391
508.000000	0.194364
506.000000	0.185346
504.000000	0.177148
502.000000	0.168652
500.000000	0.160653
498.000000	0.151694
496.000000	0.144414
494.000000	0.138082
492.000000	0.128517
490.000000	0.121951
488.000000	0.113654
486.000000	0.104799
484.000000	0.095813
482.000000	0.088547
480.000000	0.081780
478.000000	0.076527
476.000000	0.069659
474.000000	0.065793
472.000000	0.061274
470.000000	0.056503
468.000000	0.050350
466.000000	0.048626
464.000000	0.046088
462.000000	0.042813
460.000000	0.039842
458.000000	0.038640
456.000000	0.035019
454.000000	0.033912
452.000000	0.031680
450.000000	0.031502
448.000000	0.030580
446.000000	0.026805
444.000000	0.022041
442.000000	0.024364
440.000000	0.019083
438.000000	0.018089
436.000000	0.021265
434.000000	0.021708
432.000000	0.021536
430.000000	0.032151
428.000000	0.037242
426.000000	0.054968
424.000000	0.072359
422.000000	0.098114
420.000000	0.130105
