PE UV       SUBTECH     SPECTRUM    ASCII       PEDS        4.00        
   -1
180628-3.Sample.asc
18/06/28
17:14:39.00
18/06/28
17:14:39.00
Analyst
Moxsio2 test
420.000000
1
Lambda 950
950L1201053
PerkinElmer UV WinLab 6.0.4.0738 / 1.61.00 Lambda 900

0
0
3350/16 889.8/4
0
0
VIS
1
1
1
CommonBeamDepol,RBeamAtt,SBeamAtt,universal reflectance
0
0
0
0
Program
 
0
3350/0.12 889.8/0.12
0
0
0
 
 
 
0
 
889.8
150
889.8
Front
31
on
3350/S:100 3350/R:100
 
0
0
0
 
0
 
 
 
0
 
 
0
0
8.0
4.00
4.00
False
False
202L1112213
 
0
0


0
0
#HDR
-1
-1
#GR
nm
%R
1.0
0.0
670.000000
-2.000000
126
8
1.053576
0.043531
#DATA
670.000000	1.053576
668.000000	0.995722
666.000000	0.939467
664.000000	0.883660
662.000000	0.834468
660.000000	0.778874
658.000000	0.731529
656.000000	0.687037
654.000000	0.640149
652.000000	0.599323
650.000000	0.557871
648.000000	0.516491
646.000000	0.483113
644.000000	0.450696
642.000000	0.417484
640.000000	0.385008
638.000000	0.354115
636.000000	0.331618
634.000000	0.307027
632.000000	0.283631
630.000000	0.260592
628.000000	0.243578
626.000000	0.227174
624.000000	0.211438
622.000000	0.197149
620.000000	0.185953
618.000000	0.176184
616.000000	0.166259
614.000000	0.159770
612.000000	0.151458
610.000000	0.145437
608.000000	0.142161
606.000000	0.139449
604.000000	0.137840
602.000000	0.137522
600.000000	0.139283
598.000000	0.140782
596.000000	0.142154
594.000000	0.143064
592.000000	0.149258
590.000000	0.154497
588.000000	0.159915
586.000000	0.166566
584.000000	0.170300
582.000000	0.176971
580.000000	0.186271
578.000000	0.192700
576.000000	0.202326
574.000000	0.209601
572.000000	0.215930
570.000000	0.223478
568.000000	0.230950
566.000000	0.238567
564.000000	0.244251
562.000000	0.250995
560.000000	0.261782
558.000000	0.266316
556.000000	0.269389
554.000000	0.275402
552.000000	0.279563
550.000000	0.283587
548.000000	0.288994
546.000000	0.292209
544.000000	0.294653
542.000000	0.298470
540.000000	0.299668
538.000000	0.299573
536.000000	0.301119
534.000000	0.300033
532.000000	0.297956
530.000000	0.297123
528.000000	0.296120
526.000000	0.291562
524.000000	0.288256
522.000000	0.283281
520.000000	0.278417
518.000000	0.272523
516.000000	0.267802
514.000000	0.260820
512.000000	0.255375
510.000000	0.248198
508.000000	0.238539
506.000000	0.233204
504.000000	0.225684
502.000000	0.218276
500.000000	0.211065
498.000000	0.202220
496.000000	0.194565
494.000000	0.189083
492.000000	0.181033
490.000000	0.170265
488.000000	0.164545
486.000000	0.158609
484.000000	0.144389
482.000000	0.136133
480.000000	0.132093
478.000000	0.120338
476.000000	0.114917
474.000000	0.110075
472.000000	0.103313
470.000000	0.098207
468.000000	0.093984
466.000000	0.086248
464.000000	0.084100
462.000000	0.079676
460.000000	0.076761
458.000000	0.071698
456.000000	0.071281
454.000000	0.065200
452.000000	0.067181
450.000000	0.063626
448.000000	0.059612
446.000000	0.056262
444.000000	0.053680
442.000000	0.048742
440.000000	0.045263
438.000000	0.044694
436.000000	0.044582
434.000000	0.044525
432.000000	0.043531
430.000000	0.046439
428.000000	0.051228
426.000000	0.060470
424.000000	0.069228
422.000000	0.087675
420.000000	0.109421
