PE UV       SUBTECH     SPECTRUM    ASCII       PEDS        4.00        
   -1
180629-3 Z REFL.Sample.asc
18/06/29
12:54:39.00
18/06/29
12:54:39.00
Analyst
Moxtek
420.000000
1
Lambda 950
950L1201053
PerkinElmer UV WinLab 6.0.4.0738 / 1.61.00 Lambda 900

0
0
3350/16 889.8/4
0
0
VIS
1
1
1
CommonBeamDepol,RBeamAtt,SBeamAtt,universal reflectance
0
0
0
0
Program
 
0
3350/0.12 889.8/0.12
0
0
0
 
 
 
0
 
889.8
150
889.8
Front
31
on
3350/S:100 3350/R:100
 
0
0
0
 
0
 
 
 
0
 
 
0
0
8.0
4.00
4.00
False
False
202L1112213
 
0
0


0
0
#HDR
-1
-1
#GR
nm
%R
1.0
0.0
670.000000
-2.000000
126
8
0.759693
0.017493
#DATA
670.000000	0.759693
668.000000	0.712700
666.000000	0.663606
664.000000	0.620397
662.000000	0.574490
660.000000	0.536488
658.000000	0.496781
656.000000	0.464178
654.000000	0.425497
652.000000	0.396297
650.000000	0.363917
648.000000	0.336560
646.000000	0.313671
644.000000	0.288167
642.000000	0.268692
640.000000	0.247564
638.000000	0.228305
636.000000	0.215371
634.000000	0.198565
632.000000	0.186545
630.000000	0.174748
628.000000	0.168883
626.000000	0.161468
624.000000	0.154336
622.000000	0.148059
620.000000	0.145173
618.000000	0.143325
616.000000	0.142893
614.000000	0.143728
612.000000	0.142572
610.000000	0.147384
608.000000	0.151572
606.000000	0.154978
604.000000	0.160911
602.000000	0.165823
600.000000	0.172620
598.000000	0.180658
596.000000	0.186538
594.000000	0.194379
592.000000	0.202526
590.000000	0.203413
588.000000	0.211707
586.000000	0.219566
584.000000	0.228278
582.000000	0.234573
580.000000	0.246361
578.000000	0.254477
576.000000	0.263017
574.000000	0.270256
572.000000	0.276522
570.000000	0.286411
568.000000	0.294588
566.000000	0.300660
564.000000	0.303849
562.000000	0.312694
560.000000	0.324306
558.000000	0.323907
556.000000	0.327868
554.000000	0.330070
552.000000	0.333505
550.000000	0.334866
548.000000	0.337229
546.000000	0.336600
544.000000	0.336140
542.000000	0.336503
540.000000	0.335230
538.000000	0.332880
536.000000	0.330602
534.000000	0.325484
532.000000	0.319861
530.000000	0.315777
528.000000	0.310424
526.000000	0.305347
524.000000	0.297878
522.000000	0.290361
520.000000	0.282012
518.000000	0.273266
516.000000	0.262472
514.000000	0.254544
512.000000	0.246466
510.000000	0.235579
508.000000	0.224910
506.000000	0.214507
504.000000	0.205018
502.000000	0.193596
500.000000	0.184679
498.000000	0.174271
496.000000	0.164250
494.000000	0.155364
492.000000	0.142367
490.000000	0.135727
488.000000	0.125475
486.000000	0.115828
484.000000	0.099813
482.000000	0.095372
480.000000	0.082575
478.000000	0.074935
476.000000	0.069842
474.000000	0.062616
472.000000	0.057246
470.000000	0.050462
468.000000	0.045230
466.000000	0.040227
464.000000	0.037526
462.000000	0.033487
460.000000	0.031391
458.000000	0.029492
456.000000	0.026174
454.000000	0.026036
452.000000	0.023248
450.000000	0.023898
448.000000	0.022829
446.000000	0.021953
444.000000	0.026729
442.000000	0.019052
440.000000	0.017493
438.000000	0.022062
436.000000	0.025054
434.000000	0.028496
432.000000	0.033344
430.000000	0.044889
428.000000	0.057761
426.000000	0.077825
424.000000	0.093331
422.000000	0.125481
420.000000	0.164611
