PE UV       SUBTECH     SPECTRUM    ASCII       PEDS        4.00        
   -1
180626-4 Z .Sample.asc
18/06/26
11:54:55.00
18/06/26
11:54:55.00
Analyst
Moxtek
420.000000
1
Lambda 950
950L1201053
PerkinElmer UV WinLab 6.0.4.0738 / 1.61.00 Lambda 900

0
0
3350/16 889.8/4
0
0
VIS
1
1
1
CommonBeamDepol,RBeamAtt,SBeamAtt,universal reflectance
0
0
0
0
Program
 
0
3350/0.12 889.8/0.12
0
0
0
 
 
 
0
 
889.8
150
889.8
Front
31
on
3350/S:100 3350/R:100
 
0
0
0
 
0
 
 
 
0
 
 
0
0
8.0
4.00
4.00
False
False
202L1112213
 
0
0


0
0
#HDR
-1
-1
#GR
nm
%R
1.0
0.0
670.000000
-2.000000
126
8
0.688861
0.042365
#DATA
670.000000	0.688861
668.000000	0.641179
666.000000	0.595051
664.000000	0.552996
662.000000	0.516622
660.000000	0.474962
658.000000	0.440014
656.000000	0.405730
654.000000	0.372651
652.000000	0.343483
650.000000	0.311088
648.000000	0.290459
646.000000	0.265740
644.000000	0.246463
642.000000	0.221551
640.000000	0.205345
638.000000	0.186499
636.000000	0.171065
634.000000	0.158900
632.000000	0.148688
630.000000	0.136794
628.000000	0.124992
626.000000	0.121611
624.000000	0.115338
622.000000	0.109864
620.000000	0.107676
618.000000	0.104832
616.000000	0.104603
614.000000	0.103164
612.000000	0.104637
610.000000	0.108423
608.000000	0.111476
606.000000	0.117865
604.000000	0.121102
602.000000	0.127693
600.000000	0.134333
598.000000	0.138607
596.000000	0.148286
594.000000	0.155819
592.000000	0.162344
590.000000	0.170370
588.000000	0.180655
586.000000	0.189568
584.000000	0.198759
582.000000	0.209026
580.000000	0.215026
578.000000	0.225445
576.000000	0.235393
574.000000	0.241753
572.000000	0.252550
570.000000	0.260065
568.000000	0.269069
566.000000	0.275260
564.000000	0.283063
562.000000	0.288052
560.000000	0.300885
558.000000	0.302562
556.000000	0.302671
554.000000	0.310760
552.000000	0.311594
550.000000	0.316449
548.000000	0.318666
546.000000	0.320538
544.000000	0.320102
542.000000	0.321742
540.000000	0.323003
538.000000	0.319766
536.000000	0.318167
534.000000	0.316262
532.000000	0.313268
530.000000	0.309383
528.000000	0.305628
526.000000	0.299984
524.000000	0.295059
522.000000	0.288303
520.000000	0.280986
518.000000	0.274540
516.000000	0.266144
514.000000	0.259586
512.000000	0.252028
510.000000	0.242535
508.000000	0.235703
506.000000	0.226981
504.000000	0.218846
502.000000	0.210550
500.000000	0.202992
498.000000	0.193746
496.000000	0.187691
494.000000	0.179071
492.000000	0.173719
490.000000	0.163787
488.000000	0.155954
486.000000	0.146236
484.000000	0.140732
482.000000	0.129890
480.000000	0.125578
478.000000	0.117862
476.000000	0.111241
474.000000	0.106357
472.000000	0.102512
470.000000	0.096004
468.000000	0.093122
466.000000	0.087082
464.000000	0.082067
462.000000	0.077951
460.000000	0.076244
458.000000	0.070749
456.000000	0.066347
454.000000	0.064670
452.000000	0.060551
450.000000	0.057736
448.000000	0.058225
446.000000	0.052279
444.000000	0.049796
442.000000	0.049902
440.000000	0.042365
438.000000	0.044023
436.000000	0.050972
434.000000	0.047402
432.000000	0.054230
430.000000	0.069031
428.000000	0.078481
426.000000	0.102433
424.000000	0.130861
422.000000	0.160520
420.000000	0.206990
