PE UV       SUBTECH     SPECTRUM    ASCII       PEDS        4.00        
   -1
180618-8.Sample.asc
18/06/18
20:09:35.00
18/06/18
20:09:35.00
Analyst
MOXSIO2
400.000000
1
Lambda 950
950L1201053
PerkinElmer UV WinLab 6.0.4.0738 / 1.61.00 Lambda 900

0
0
3350/16 889.8/4
0
0
VIS
1
1
1
CommonBeamDepol,RBeamAtt,SBeamAtt,universal reflectance
0
0
0
0
Program
 
0
3350/1 889.8/0.28
0
0
0
 
 
 
0
 
889.8
150
889.8
Front
31
on
3350/S:100 3350/R:100
 
0
0
0
 
0
 
 
 
0
 
 
0
0
8.0
4.00
4.00
False
False
202L1112213
 
0
0


0
0
#HDR
-1
-1
#GR
nm
%R
1.0
0.0
700.000000
-2.000000
151
8
4.557177
0.069738
#DATA
700.000000	1.104852
698.000000	1.050702
696.000000	0.994166
694.000000	0.940967
692.000000	0.888574
690.000000	0.841436
688.000000	0.794136
686.000000	0.747092
684.000000	0.703101
682.000000	0.664686
680.000000	0.625496
678.000000	0.589363
676.000000	0.554093
674.000000	0.522965
672.000000	0.493910
670.000000	0.463777
668.000000	0.439834
666.000000	0.413335
664.000000	0.391303
662.000000	0.369747
660.000000	0.350812
658.000000	0.333354
656.000000	0.317600
654.000000	0.305487
652.000000	0.292820
650.000000	0.283806
648.000000	0.271800
646.000000	0.265341
644.000000	0.260784
642.000000	0.255237
640.000000	0.252921
638.000000	0.250767
636.000000	0.249352
634.000000	0.247441
632.000000	0.249801
630.000000	0.254864
628.000000	0.257116
626.000000	0.260574
624.000000	0.266039
622.000000	0.273787
620.000000	0.281604
618.000000	0.287153
616.000000	0.295629
614.000000	0.303697
612.000000	0.312839
610.000000	0.321904
608.000000	0.331801
606.000000	0.343307
604.000000	0.352186
602.000000	0.363546
600.000000	0.373100
598.000000	0.382731
596.000000	0.393210
594.000000	0.404513
592.000000	0.413817
590.000000	0.421896
588.000000	0.431639
586.000000	0.440233
584.000000	0.450171
582.000000	0.456417
580.000000	0.463637
578.000000	0.469250
576.000000	0.475904
574.000000	0.481146
572.000000	0.486582
570.000000	0.489008
568.000000	0.491530
566.000000	0.495295
564.000000	0.495929
562.000000	0.497840
560.000000	0.498546
558.000000	0.495264
556.000000	0.491973
554.000000	0.491280
552.000000	0.485736
550.000000	0.481497
548.000000	0.473684
546.000000	0.467474
544.000000	0.459595
542.000000	0.451045
540.000000	0.442563
538.000000	0.432719
536.000000	0.422160
534.000000	0.410937
532.000000	0.398381
530.000000	0.385399
528.000000	0.374303
526.000000	0.360920
524.000000	0.346942
522.000000	0.333088
520.000000	0.318619
518.000000	0.304066
516.000000	0.290187
514.000000	0.276083
512.000000	0.262014
510.000000	0.247833
508.000000	0.233838
506.000000	0.220457
504.000000	0.207280
502.000000	0.193868
500.000000	0.181963
498.000000	0.170703
496.000000	0.159388
494.000000	0.149447
492.000000	0.139762
490.000000	0.129822
488.000000	0.122487
486.000000	0.111548
484.000000	0.104185
482.000000	0.098656
480.000000	0.092436
478.000000	0.086626
476.000000	0.081551
474.000000	0.078003
472.000000	0.074411
470.000000	0.072375
468.000000	0.070731
466.000000	0.070090
464.000000	0.069738
462.000000	0.070200
460.000000	0.072113
458.000000	0.074499
456.000000	0.076606
454.000000	0.082085
452.000000	0.088564
450.000000	0.096145
448.000000	0.106184
446.000000	0.117263
444.000000	0.133845
442.000000	0.149584
440.000000	0.167121
438.000000	0.193188
436.000000	0.227040
434.000000	0.266842
432.000000	0.311223
430.000000	0.366694
428.000000	0.438708
426.000000	0.518112
424.000000	0.616666
422.000000	0.733243
420.000000	0.873456
418.000000	1.038862
416.000000	1.231875
414.000000	1.457514
412.000000	1.728428
410.000000	2.047428
408.000000	2.411148
406.000000	2.837941
404.000000	3.333877
402.000000	3.899071
400.000000	4.557177
