PE UV       SUBTECH     SPECTRUM    ASCII       PEDS        4.00        
   -1
180620-4R.Sample.asc
18/06/20
20:20:31.00
18/06/20
20:20:31.00
Analyst
MOXSIO2 test
400.000000
1
Lambda 950
950L1201053
PerkinElmer UV WinLab 6.0.4.0738 / 1.61.00 Lambda 900

0
0
3350/16 889.8/4
0
0
VIS
1
1
1
CommonBeamDepol,RBeamAtt,SBeamAtt,universal reflectance
0
0
0
0
Program
 
0
3350/1 889.8/0.28
0
0
0
 
 
 
0
 
889.8
150
889.8
Front
31
on
3350/S:100 3350/R:100
 
0
0
0
 
0
 
 
 
0
 
 
0
0
8.0
4.00
4.00
False
False
202L1112213
 
0
0


0
0
#HDR
-1
-1
#GR
nm
%R
1.0
0.0
700.000000
-2.000000
151
8
1.451198
0.061434
#DATA
700.000000	0.253466
698.000000	0.256548
696.000000	0.254784
694.000000	0.258746
692.000000	0.261409
690.000000	0.264280
688.000000	0.271290
686.000000	0.274629
684.000000	0.279280
682.000000	0.285912
680.000000	0.292007
678.000000	0.298542
676.000000	0.306889
674.000000	0.313783
672.000000	0.322139
670.000000	0.329974
668.000000	0.338242
666.000000	0.347086
664.000000	0.355114
662.000000	0.364053
660.000000	0.372663
658.000000	0.380907
656.000000	0.390354
654.000000	0.397376
652.000000	0.405775
650.000000	0.412777
648.000000	0.420995
646.000000	0.428119
644.000000	0.432644
642.000000	0.441832
640.000000	0.446517
638.000000	0.454296
636.000000	0.458682
634.000000	0.461540
632.000000	0.467521
630.000000	0.470320
628.000000	0.472916
626.000000	0.473674
624.000000	0.475678
622.000000	0.477571
620.000000	0.476748
618.000000	0.476316
616.000000	0.474329
614.000000	0.473333
612.000000	0.469450
610.000000	0.466231
608.000000	0.462719
606.000000	0.455772
604.000000	0.453045
602.000000	0.445521
600.000000	0.439143
598.000000	0.431170
596.000000	0.423263
594.000000	0.414653
592.000000	0.405753
590.000000	0.394944
588.000000	0.384562
586.000000	0.374138
584.000000	0.364285
582.000000	0.351283
580.000000	0.338692
578.000000	0.325807
576.000000	0.314074
574.000000	0.301570
572.000000	0.286393
570.000000	0.273430
568.000000	0.259524
566.000000	0.246876
564.000000	0.233348
562.000000	0.220275
560.000000	0.207658
558.000000	0.193606
556.000000	0.178652
554.000000	0.167789
552.000000	0.154540
550.000000	0.142107
548.000000	0.131645
546.000000	0.120718
544.000000	0.111358
542.000000	0.101787
540.000000	0.093247
538.000000	0.086617
536.000000	0.078603
534.000000	0.073023
532.000000	0.068337
530.000000	0.065855
528.000000	0.063327
526.000000	0.061434
524.000000	0.061881
522.000000	0.062332
520.000000	0.064780
518.000000	0.069053
516.000000	0.074177
514.000000	0.081080
512.000000	0.089145
510.000000	0.098016
508.000000	0.109022
506.000000	0.120323
504.000000	0.133792
502.000000	0.147313
500.000000	0.164088
498.000000	0.183379
496.000000	0.203844
494.000000	0.225776
492.000000	0.249807
490.000000	0.279051
488.000000	0.305901
486.000000	0.336550
484.000000	0.366646
482.000000	0.401948
480.000000	0.434220
478.000000	0.464166
476.000000	0.495939
474.000000	0.528058
472.000000	0.562130
470.000000	0.594936
468.000000	0.625983
466.000000	0.656747
464.000000	0.687888
462.000000	0.717477
460.000000	0.743370
458.000000	0.768984
456.000000	0.791333
454.000000	0.811520
452.000000	0.828177
450.000000	0.839089
448.000000	0.845405
446.000000	0.845975
444.000000	0.841608
442.000000	0.827169
440.000000	0.806595
438.000000	0.780051
436.000000	0.750052
434.000000	0.710038
432.000000	0.663043
430.000000	0.606439
428.000000	0.551227
426.000000	0.490714
424.000000	0.426334
422.000000	0.366336
420.000000	0.307336
418.000000	0.256316
416.000000	0.222095
414.000000	0.205521
412.000000	0.219182
410.000000	0.264041
408.000000	0.356862
406.000000	0.508549
404.000000	0.727509
402.000000	1.036379
400.000000	1.451198
