PE UV       SUBTECH     SPECTRUM    ASCII       PEDS        4.00        
   -1
180626-6R.Sample.asc
18/06/26
16:47:40.00
18/06/26
16:47:40.00
Analyst
Moxtek
420.000000
1
Lambda 950
950L1201053
PerkinElmer UV WinLab 6.0.4.0738 / 1.61.00 Lambda 900

0
0
3350/16 889.8/4
0
0
VIS
1
1
1
CommonBeamDepol,RBeamAtt,SBeamAtt,universal reflectance
0
0
0
0
Program
 
0
3350/0.12 889.8/0.12
0
0
0
 
 
 
0
 
889.8
150
889.8
Front
31
on
3350/S:100 3350/R:100
 
0
0
0
 
0
 
 
 
0
 
 
0
0
8.0
4.00
4.00
False
False
202L1112213
 
0
0


0
0
#HDR
-1
-1
#GR
nm
%R
1.0
0.0
670.000000
-2.000000
126
8
0.700130
0.036111
#DATA
670.000000	0.700130
668.000000	0.658382
666.000000	0.612026
664.000000	0.575876
662.000000	0.535700
660.000000	0.495388
658.000000	0.463102
656.000000	0.430942
654.000000	0.402539
652.000000	0.372640
650.000000	0.347222
648.000000	0.321587
646.000000	0.299020
644.000000	0.275525
642.000000	0.258831
640.000000	0.242283
638.000000	0.227530
636.000000	0.209063
634.000000	0.203792
632.000000	0.191684
630.000000	0.180529
628.000000	0.172647
626.000000	0.168041
624.000000	0.165341
622.000000	0.161911
620.000000	0.157987
618.000000	0.156840
616.000000	0.155547
614.000000	0.157244
612.000000	0.159739
610.000000	0.163412
608.000000	0.164020
606.000000	0.171642
604.000000	0.175862
602.000000	0.183095
600.000000	0.188972
598.000000	0.195207
596.000000	0.207120
594.000000	0.212139
592.000000	0.221828
590.000000	0.230462
588.000000	0.241048
586.000000	0.248493
584.000000	0.256595
582.000000	0.265810
580.000000	0.273387
578.000000	0.281442
576.000000	0.291808
574.000000	0.298038
572.000000	0.306047
570.000000	0.315417
568.000000	0.322420
566.000000	0.327055
564.000000	0.335952
562.000000	0.338346
560.000000	0.350610
558.000000	0.350993
556.000000	0.349995
554.000000	0.355471
552.000000	0.358024
550.000000	0.356410
548.000000	0.360087
546.000000	0.360574
544.000000	0.358005
542.000000	0.357554
540.000000	0.355716
538.000000	0.351551
536.000000	0.348241
534.000000	0.343378
532.000000	0.336081
530.000000	0.331509
528.000000	0.325651
526.000000	0.317993
524.000000	0.310944
522.000000	0.301818
520.000000	0.293045
518.000000	0.285311
516.000000	0.277668
514.000000	0.267354
512.000000	0.256618
510.000000	0.246335
508.000000	0.236828
506.000000	0.227218
504.000000	0.216346
502.000000	0.207464
500.000000	0.198851
498.000000	0.186747
496.000000	0.176030
494.000000	0.169107
492.000000	0.160131
490.000000	0.148340
488.000000	0.140286
486.000000	0.132632
484.000000	0.121793
482.000000	0.113311
480.000000	0.107787
478.000000	0.099271
476.000000	0.091232
474.000000	0.088971
472.000000	0.083943
470.000000	0.078026
468.000000	0.073649
466.000000	0.069404
464.000000	0.065821
462.000000	0.062186
460.000000	0.060207
458.000000	0.056184
456.000000	0.052468
454.000000	0.049191
452.000000	0.048958
450.000000	0.046004
448.000000	0.043541
446.000000	0.045351
444.000000	0.043609
442.000000	0.038566
440.000000	0.036111
438.000000	0.039093
436.000000	0.044650
434.000000	0.043696
432.000000	0.054557
430.000000	0.066153
428.000000	0.082141
426.000000	0.104503
424.000000	0.133458
422.000000	0.165432
420.000000	0.210924
