PE UV       SUBTECH     SPECTRUM    ASCII       PEDS        4.00        
   -1
180620-2 z.Sample.asc
18/06/20
14:57:17.00
18/06/20
14:57:17.00
Analyst
Moxtek
420.000000
1
Lambda 950
950L1201053
PerkinElmer UV WinLab 6.0.4.0738 / 1.61.00 Lambda 900

0
0
3350/16 889.8/4
0
0
VIS
1
1
1
CommonBeamDepol,RBeamAtt,SBeamAtt,universal reflectance
0
0
0
0
Program
 
0
3350/0.12 889.8/0.12
0
0
0
 
 
 
0
 
889.8
150
889.8
Front
31
on
3350/S:100 3350/R:100
 
0
0
0
 
0
 
 
 
0
 
 
0
0
8.0
4.00
4.00
False
False
202L1112213
 
0
0


0
0
#HDR
-1
-1
#GR
nm
%R
1.0
0.0
670.000000
-2.000000
126
8
0.443271
0.013532
#DATA
670.000000	0.312138
668.000000	0.283148
666.000000	0.262266
664.000000	0.235614
662.000000	0.214065
660.000000	0.194386
658.000000	0.177142
656.000000	0.161620
654.000000	0.148283
652.000000	0.133075
650.000000	0.120341
648.000000	0.111522
646.000000	0.099989
644.000000	0.091374
642.000000	0.085148
640.000000	0.080286
638.000000	0.074954
636.000000	0.074345
634.000000	0.070063
632.000000	0.067598
630.000000	0.070909
628.000000	0.072045
626.000000	0.072846
624.000000	0.074931
622.000000	0.079238
620.000000	0.083553
618.000000	0.088762
616.000000	0.092282
614.000000	0.098779
612.000000	0.105456
610.000000	0.109294
608.000000	0.118433
606.000000	0.124418
604.000000	0.129591
602.000000	0.143099
600.000000	0.146675
598.000000	0.155137
596.000000	0.163335
594.000000	0.172953
592.000000	0.182270
590.000000	0.188590
588.000000	0.197475
586.000000	0.202510
584.000000	0.210936
582.000000	0.218820
580.000000	0.223344
578.000000	0.230951
576.000000	0.234842
574.000000	0.240278
572.000000	0.245803
570.000000	0.251034
568.000000	0.253552
566.000000	0.255117
564.000000	0.260351
562.000000	0.264187
560.000000	0.268308
558.000000	0.268110
556.000000	0.265305
554.000000	0.265204
552.000000	0.263190
550.000000	0.263576
548.000000	0.261203
546.000000	0.259232
544.000000	0.255845
542.000000	0.254548
540.000000	0.248819
538.000000	0.243255
536.000000	0.239909
534.000000	0.233883
532.000000	0.226887
530.000000	0.221125
528.000000	0.214518
526.000000	0.206525
524.000000	0.200437
522.000000	0.191517
520.000000	0.186234
518.000000	0.178005
516.000000	0.170004
514.000000	0.164309
512.000000	0.155707
510.000000	0.148670
508.000000	0.141230
506.000000	0.135189
504.000000	0.129011
502.000000	0.123766
500.000000	0.117634
498.000000	0.112461
496.000000	0.107707
494.000000	0.103451
492.000000	0.099463
490.000000	0.096161
488.000000	0.090387
486.000000	0.085023
484.000000	0.077449
482.000000	0.073303
480.000000	0.070692
478.000000	0.067151
476.000000	0.061795
474.000000	0.059416
472.000000	0.056454
470.000000	0.053377
468.000000	0.050699
466.000000	0.046621
464.000000	0.043651
462.000000	0.041102
460.000000	0.037778
458.000000	0.033965
456.000000	0.030127
454.000000	0.026963
452.000000	0.022972
450.000000	0.019638
448.000000	0.018064
446.000000	0.014519
444.000000	0.013532
442.000000	0.014740
440.000000	0.016227
438.000000	0.026921
436.000000	0.035739
434.000000	0.053264
432.000000	0.076911
430.000000	0.108175
428.000000	0.145908
426.000000	0.202680
424.000000	0.266069
422.000000	0.347312
420.000000	0.443271
