PE UV       SUBTECH     SPECTRUM    ASCII       PEDS        4.00        
   -1
180627-6.Sample.asc
18/06/27
17:29:52.00
18/06/27
17:29:52.00
Analyst
MOXSIO2 TEST
420.000000
1
Lambda 950
950L1201053
PerkinElmer UV WinLab 6.0.4.0738 / 1.61.00 Lambda 900

0
0
3350/16 889.8/4
0
0
VIS
1
1
1
CommonBeamDepol,RBeamAtt,SBeamAtt,universal reflectance
0
0
0
0
Program
 
0
3350/0.12 889.8/0.12
0
0
0
 
 
 
0
 
889.8
150
889.8
Front
31
on
3350/S:100 3350/R:100
 
0
0
0
 
0
 
 
 
0
 
 
0
0
8.0
4.00
4.00
False
False
202L1112213
 
0
0


0
0
#HDR
-1
-1
#GR
nm
%R
1.0
0.0
670.000000
-2.000000
126
8
0.721388
0.023897
#DATA
670.000000	0.721388
668.000000	0.675433
666.000000	0.635596
664.000000	0.598115
662.000000	0.556489
660.000000	0.518405
658.000000	0.485810
656.000000	0.451650
654.000000	0.422218
652.000000	0.393814
650.000000	0.366921
648.000000	0.341955
646.000000	0.317863
644.000000	0.299349
642.000000	0.279068
640.000000	0.260499
638.000000	0.242833
636.000000	0.228507
634.000000	0.219289
632.000000	0.203425
630.000000	0.193642
628.000000	0.185728
626.000000	0.179083
624.000000	0.172883
622.000000	0.167989
620.000000	0.165450
618.000000	0.164696
616.000000	0.166089
614.000000	0.164284
612.000000	0.164482
610.000000	0.170326
608.000000	0.172877
606.000000	0.177633
604.000000	0.181331
602.000000	0.187857
600.000000	0.192888
598.000000	0.200276
596.000000	0.206264
594.000000	0.212880
592.000000	0.221267
590.000000	0.228065
588.000000	0.240398
586.000000	0.245913
584.000000	0.252427
582.000000	0.259971
580.000000	0.269597
578.000000	0.278141
576.000000	0.286995
574.000000	0.293989
572.000000	0.302826
570.000000	0.308991
568.000000	0.317863
566.000000	0.323046
564.000000	0.326611
562.000000	0.333440
560.000000	0.343695
558.000000	0.342755
556.000000	0.345546
554.000000	0.347351
552.000000	0.350106
550.000000	0.350953
548.000000	0.352376
546.000000	0.351659
544.000000	0.350345
542.000000	0.348461
540.000000	0.347705
538.000000	0.344812
536.000000	0.341356
534.000000	0.336213
532.000000	0.331169
530.000000	0.324214
528.000000	0.317968
526.000000	0.310215
524.000000	0.303012
522.000000	0.294472
520.000000	0.286000
518.000000	0.276394
516.000000	0.266428
514.000000	0.256804
512.000000	0.246556
510.000000	0.236516
508.000000	0.225330
506.000000	0.214613
504.000000	0.203932
502.000000	0.194323
500.000000	0.183361
498.000000	0.173306
496.000000	0.164606
494.000000	0.155928
492.000000	0.142957
490.000000	0.135145
488.000000	0.129208
486.000000	0.117387
484.000000	0.108572
482.000000	0.098595
480.000000	0.088853
478.000000	0.083103
476.000000	0.074098
474.000000	0.068670
472.000000	0.062989
470.000000	0.059117
468.000000	0.054239
466.000000	0.050272
464.000000	0.045790
462.000000	0.040384
460.000000	0.039607
458.000000	0.037819
456.000000	0.034477
454.000000	0.030914
452.000000	0.029809
450.000000	0.026667
448.000000	0.031058
446.000000	0.029399
444.000000	0.029278
442.000000	0.027215
440.000000	0.023897
438.000000	0.025927
436.000000	0.028778
434.000000	0.033404
432.000000	0.042307
430.000000	0.059129
428.000000	0.071777
426.000000	0.089871
424.000000	0.111846
422.000000	0.144758
420.000000	0.189047
