PE UV       SUBTECH     SPECTRUM    ASCII       PEDS        4.00        
   -1
180627-5.Sample.asc
18/06/27
16:20:51.00
18/06/27
16:20:51.00
Analyst
Moxsio2 test
420.000000
1
Lambda 950
950L1201053
PerkinElmer UV WinLab 6.0.4.0738 / 1.61.00 Lambda 900

0
0
3350/16 889.8/4
0
0
VIS
1
1
1
CommonBeamDepol,RBeamAtt,SBeamAtt,universal reflectance
0
0
0
0
Program
 
0
3350/0.12 889.8/0.12
0
0
0
 
 
 
0
 
889.8
150
889.8
Front
31
on
3350/S:100 3350/R:100
 
0
0
0
 
0
 
 
 
0
 
 
0
0
8.0
4.00
4.00
False
False
202L1112213
 
0
0


0
0
#HDR
-1
-1
#GR
nm
%R
1.0
0.0
670.000000
-2.000000
126
8
0.641168
0.018573
#DATA
670.000000	0.641168
668.000000	0.598112
666.000000	0.555105
664.000000	0.514023
662.000000	0.480101
660.000000	0.444524
658.000000	0.409823
656.000000	0.379882
654.000000	0.348748
652.000000	0.322025
650.000000	0.295623
648.000000	0.273593
646.000000	0.250007
644.000000	0.231545
642.000000	0.210878
640.000000	0.194409
638.000000	0.180142
636.000000	0.166503
634.000000	0.156892
632.000000	0.143177
630.000000	0.136361
628.000000	0.128999
626.000000	0.124662
624.000000	0.121874
622.000000	0.116974
620.000000	0.114935
618.000000	0.114832
616.000000	0.115217
614.000000	0.115827
612.000000	0.117267
610.000000	0.121710
608.000000	0.125002
606.000000	0.128867
604.000000	0.134683
602.000000	0.138985
600.000000	0.145711
598.000000	0.156862
596.000000	0.164490
594.000000	0.173656
592.000000	0.181433
590.000000	0.187451
588.000000	0.198702
586.000000	0.205901
584.000000	0.215257
582.000000	0.224716
580.000000	0.233255
578.000000	0.241808
576.000000	0.250828
574.000000	0.258505
572.000000	0.265760
570.000000	0.274049
568.000000	0.280922
566.000000	0.287640
564.000000	0.293141
562.000000	0.299045
560.000000	0.307801
558.000000	0.307269
556.000000	0.309831
554.000000	0.313134
552.000000	0.315823
550.000000	0.315711
548.000000	0.316192
546.000000	0.317805
544.000000	0.317389
542.000000	0.315701
540.000000	0.312139
538.000000	0.308780
536.000000	0.305829
534.000000	0.301117
532.000000	0.295789
530.000000	0.288174
528.000000	0.283589
526.000000	0.275582
524.000000	0.267845
522.000000	0.257848
520.000000	0.251077
518.000000	0.239804
516.000000	0.231467
514.000000	0.221520
512.000000	0.211890
510.000000	0.202727
508.000000	0.192485
506.000000	0.181896
504.000000	0.172194
502.000000	0.163373
500.000000	0.153988
498.000000	0.144004
496.000000	0.135521
494.000000	0.127823
492.000000	0.120769
490.000000	0.110789
488.000000	0.102723
486.000000	0.094443
484.000000	0.087635
482.000000	0.077149
480.000000	0.071290
478.000000	0.063517
476.000000	0.058734
474.000000	0.055454
472.000000	0.050872
470.000000	0.046137
468.000000	0.041643
466.000000	0.037812
464.000000	0.035590
462.000000	0.033930
460.000000	0.032317
458.000000	0.032637
456.000000	0.027081
454.000000	0.028770
452.000000	0.028075
450.000000	0.022992
448.000000	0.027249
446.000000	0.021774
444.000000	0.019544
442.000000	0.018573
440.000000	0.020548
438.000000	0.021536
436.000000	0.026417
434.000000	0.029910
432.000000	0.034707
430.000000	0.049294
428.000000	0.058105
426.000000	0.083375
424.000000	0.108780
422.000000	0.141059
420.000000	0.182695
