PE UV       SUBTECH     SPECTRUM    ASCII       PEDS        4.00        
   -1
180629-1 Z REFL.Sample.asc
18/06/29
12:52:04.00
18/06/29
12:52:04.00
Analyst
Moxtek
420.000000
1
Lambda 950
950L1201053
PerkinElmer UV WinLab 6.0.4.0738 / 1.61.00 Lambda 900

0
0
3350/16 889.8/4
0
0
VIS
1
1
1
CommonBeamDepol,RBeamAtt,SBeamAtt,universal reflectance
0
0
0
0
Program
 
0
3350/0.12 889.8/0.12
0
0
0
 
 
 
0
 
889.8
150
889.8
Front
31
on
3350/S:100 3350/R:100
 
0
0
0
 
0
 
 
 
0
 
 
0
0
8.0
4.00
4.00
False
False
202L1112213
 
0
0


0
0
#HDR
-1
-1
#GR
nm
%R
1.0
0.0
670.000000
-2.000000
126
8
0.781977
0.017437
#DATA
670.000000	0.781977
668.000000	0.727922
666.000000	0.681619
664.000000	0.637283
662.000000	0.590189
660.000000	0.551890
658.000000	0.508261
656.000000	0.470724
654.000000	0.435131
652.000000	0.402125
650.000000	0.368259
648.000000	0.335608
646.000000	0.310158
644.000000	0.283761
642.000000	0.260717
640.000000	0.235897
638.000000	0.211742
636.000000	0.194590
634.000000	0.175330
632.000000	0.157420
630.000000	0.142504
628.000000	0.130194
626.000000	0.120118
624.000000	0.110955
622.000000	0.100236
620.000000	0.091135
618.000000	0.084064
616.000000	0.080452
614.000000	0.074817
612.000000	0.071346
610.000000	0.067156
608.000000	0.065309
606.000000	0.067400
604.000000	0.067076
602.000000	0.067715
600.000000	0.070541
598.000000	0.075478
596.000000	0.074890
594.000000	0.078445
592.000000	0.083140
590.000000	0.085553
588.000000	0.091082
586.000000	0.099194
584.000000	0.103006
582.000000	0.112588
580.000000	0.116893
578.000000	0.122240
576.000000	0.126864
574.000000	0.135428
572.000000	0.139130
570.000000	0.145601
568.000000	0.152086
566.000000	0.154075
564.000000	0.161506
562.000000	0.166858
560.000000	0.177124
558.000000	0.177787
556.000000	0.181259
554.000000	0.184625
552.000000	0.189119
550.000000	0.192085
548.000000	0.196108
546.000000	0.197371
544.000000	0.199243
542.000000	0.201527
540.000000	0.201610
538.000000	0.202681
536.000000	0.201789
534.000000	0.201072
532.000000	0.200951
530.000000	0.199387
528.000000	0.198106
526.000000	0.195240
524.000000	0.191718
522.000000	0.189297
520.000000	0.185312
518.000000	0.182643
516.000000	0.178649
514.000000	0.174028
512.000000	0.169441
510.000000	0.165395
508.000000	0.161106
506.000000	0.156185
504.000000	0.152268
502.000000	0.147935
500.000000	0.144694
498.000000	0.139784
496.000000	0.135651
494.000000	0.133865
492.000000	0.126852
490.000000	0.123979
488.000000	0.121335
486.000000	0.116189
484.000000	0.108964
482.000000	0.107134
480.000000	0.105206
478.000000	0.099424
476.000000	0.096018
474.000000	0.092794
472.000000	0.091178
470.000000	0.089697
468.000000	0.085400
466.000000	0.083132
464.000000	0.083917
462.000000	0.080721
460.000000	0.077511
458.000000	0.075655
456.000000	0.072444
454.000000	0.072274
452.000000	0.071070
450.000000	0.064272
448.000000	0.063341
446.000000	0.058522
444.000000	0.049196
442.000000	0.042622
440.000000	0.038778
438.000000	0.031167
436.000000	0.029026
434.000000	0.022626
432.000000	0.017437
430.000000	0.017698
428.000000	0.020397
426.000000	0.025492
424.000000	0.034401
422.000000	0.052401
420.000000	0.071591
