PE UV       SUBTECH     SPECTRUM    ASCII       PEDS        4.00        
   -1
180621-10R.Sample.asc
18/06/21
21:11:45.00
18/06/21
21:11:45.00
Analyst
MOXSIO2 test
400.000000
1
Lambda 950
950L1201053
PerkinElmer UV WinLab 6.0.4.0738 / 1.61.00 Lambda 900

0
0
3350/16 889.8/4
0
0
VIS
1
1
1
CommonBeamDepol,RBeamAtt,SBeamAtt,universal reflectance
0
0
0
0
Program
 
0
3350/1 889.8/0.28
0
0
0
 
 
 
0
 
889.8
150
889.8
Front
31
on
3350/S:100 3350/R:100
 
0
0
0
 
0
 
 
 
0
 
 
0
0
8.0
4.00
4.00
False
False
202L1112213
 
0
0


0
0
#HDR
-1
-1
#GR
nm
%R
1.0
0.0
700.000000
-2.000000
151
8
2.030751
0.046827
#DATA
700.000000	1.451676
698.000000	1.379702
696.000000	1.311105
694.000000	1.246801
692.000000	1.180724
690.000000	1.121806
688.000000	1.060809
686.000000	0.999298
684.000000	0.947297
682.000000	0.892493
680.000000	0.844591
678.000000	0.792079
676.000000	0.746008
674.000000	0.703384
672.000000	0.662465
670.000000	0.621798
668.000000	0.581698
666.000000	0.545267
664.000000	0.511426
662.000000	0.478856
660.000000	0.450862
658.000000	0.420419
656.000000	0.395453
654.000000	0.370805
652.000000	0.348040
650.000000	0.328716
648.000000	0.308413
646.000000	0.293541
644.000000	0.277143
642.000000	0.264535
640.000000	0.252644
638.000000	0.242913
636.000000	0.234482
634.000000	0.227308
632.000000	0.220884
630.000000	0.217666
628.000000	0.213986
626.000000	0.212644
624.000000	0.212704
622.000000	0.212584
620.000000	0.215012
618.000000	0.217676
616.000000	0.221313
614.000000	0.226776
612.000000	0.232167
610.000000	0.238573
608.000000	0.246090
606.000000	0.251468
604.000000	0.262368
602.000000	0.269850
600.000000	0.279572
598.000000	0.288451
596.000000	0.298432
594.000000	0.308949
592.000000	0.319081
590.000000	0.328655
588.000000	0.338084
586.000000	0.349633
584.000000	0.360034
582.000000	0.369908
580.000000	0.379930
578.000000	0.389490
576.000000	0.398697
574.000000	0.405597
572.000000	0.414044
570.000000	0.422480
568.000000	0.429343
566.000000	0.436242
564.000000	0.442742
562.000000	0.447210
560.000000	0.452884
558.000000	0.453771
556.000000	0.457960
554.000000	0.458748
552.000000	0.460717
550.000000	0.461064
548.000000	0.459808
546.000000	0.459773
544.000000	0.456418
542.000000	0.453772
540.000000	0.449639
538.000000	0.443816
536.000000	0.439316
534.000000	0.433038
532.000000	0.425540
530.000000	0.417758
528.000000	0.407873
526.000000	0.398943
524.000000	0.389434
522.000000	0.379012
520.000000	0.367877
518.000000	0.356226
516.000000	0.343928
514.000000	0.331678
512.000000	0.319598
510.000000	0.306511
508.000000	0.294029
506.000000	0.280984
504.000000	0.268203
502.000000	0.255224
500.000000	0.242864
498.000000	0.230358
496.000000	0.217212
494.000000	0.205816
492.000000	0.192594
490.000000	0.180457
488.000000	0.168870
486.000000	0.156035
484.000000	0.144339
482.000000	0.133923
480.000000	0.124453
478.000000	0.113823
476.000000	0.106053
474.000000	0.100012
472.000000	0.091481
470.000000	0.084874
468.000000	0.077913
466.000000	0.071978
464.000000	0.068698
462.000000	0.063282
460.000000	0.060564
458.000000	0.057121
456.000000	0.053218
454.000000	0.052172
452.000000	0.051062
450.000000	0.048661
448.000000	0.047792
446.000000	0.046827
444.000000	0.049359
442.000000	0.051317
440.000000	0.053131
438.000000	0.056609
436.000000	0.063582
434.000000	0.076295
432.000000	0.087581
430.000000	0.103744
428.000000	0.127062
426.000000	0.153744
424.000000	0.186976
422.000000	0.227202
420.000000	0.287110
418.000000	0.350659
416.000000	0.430727
414.000000	0.527883
412.000000	0.647042
410.000000	0.792750
408.000000	0.962509
406.000000	1.165387
404.000000	1.405577
402.000000	1.689899
400.000000	2.030751
