PE UV       SUBTECH     SPECTRUM    ASCII       PEDS        4.00        
   -1
180622-3 Z.Sample.asc
18/06/22
16:48:38.00
18/06/22
16:48:38.00
Analyst
MoxSiO2
424.000000
1
Lambda 950
950L1201053
PerkinElmer UV WinLab 6.0.4.0738 / 1.61.00 Lambda 900

0
0
3350/16 889.8/4
0
0
VIS
1
1
1
CommonBeamDepol,RBeamAtt,SBeamAtt,universal reflectance
0
0
0
0
Program
 
0
3350/0.12 889.8/0.12
0
0
0
 
 
 
0
 
889.8
150
889.8
Front
31
on
3350/S:100 3350/R:100
 
0
0
0
 
0
 
 
 
0
 
 
0
0
8.0
4.00
4.00
False
False
202L1112213
 
0
0


0
0
#HDR
-1
-1
#GR
nm
%R
1.0
0.0
670.000000
-2.000000
124
8
0.659566
0.047895
#DATA
670.000000	0.659566
668.000000	0.614907
666.000000	0.574460
664.000000	0.532506
662.000000	0.497647
660.000000	0.459592
658.000000	0.430229
656.000000	0.397190
654.000000	0.364457
652.000000	0.341155
650.000000	0.310484
648.000000	0.290205
646.000000	0.265728
644.000000	0.244891
642.000000	0.228932
640.000000	0.210596
638.000000	0.192220
636.000000	0.177639
634.000000	0.166029
632.000000	0.156708
630.000000	0.144540
628.000000	0.136596
626.000000	0.129632
624.000000	0.125334
622.000000	0.117917
620.000000	0.116317
618.000000	0.110945
616.000000	0.111521
614.000000	0.112959
612.000000	0.111324
610.000000	0.113397
608.000000	0.115372
606.000000	0.117316
604.000000	0.121832
602.000000	0.127653
600.000000	0.130957
598.000000	0.136079
596.000000	0.143665
594.000000	0.148905
592.000000	0.154912
590.000000	0.163117
588.000000	0.169359
586.000000	0.175691
584.000000	0.186497
582.000000	0.191890
580.000000	0.198103
578.000000	0.206226
576.000000	0.211590
574.000000	0.218496
572.000000	0.227164
570.000000	0.232021
568.000000	0.238977
566.000000	0.245353
564.000000	0.251359
562.000000	0.255470
560.000000	0.263564
558.000000	0.263483
556.000000	0.265679
554.000000	0.269945
552.000000	0.271538
550.000000	0.276246
548.000000	0.277117
546.000000	0.277050
544.000000	0.279466
542.000000	0.279163
540.000000	0.278979
538.000000	0.277058
536.000000	0.274562
534.000000	0.273117
532.000000	0.269752
530.000000	0.268070
528.000000	0.264894
526.000000	0.260808
524.000000	0.257934
522.000000	0.252272
520.000000	0.247200
518.000000	0.242248
516.000000	0.236777
514.000000	0.231251
512.000000	0.226283
510.000000	0.218965
508.000000	0.214669
506.000000	0.207990
504.000000	0.203113
502.000000	0.196278
500.000000	0.190844
498.000000	0.185389
496.000000	0.181508
494.000000	0.174714
492.000000	0.172425
490.000000	0.167168
488.000000	0.162263
486.000000	0.154921
484.000000	0.151403
482.000000	0.147024
480.000000	0.139327
478.000000	0.134624
476.000000	0.131333
474.000000	0.127986
472.000000	0.123486
470.000000	0.119733
468.000000	0.115107
466.000000	0.110374
464.000000	0.107013
462.000000	0.100440
460.000000	0.099301
458.000000	0.095294
456.000000	0.091496
454.000000	0.087027
452.000000	0.081818
450.000000	0.075799
448.000000	0.071213
446.000000	0.069615
444.000000	0.060707
442.000000	0.058254
440.000000	0.051759
438.000000	0.050834
436.000000	0.047895
434.000000	0.050232
432.000000	0.056136
430.000000	0.065742
428.000000	0.083213
426.000000	0.096983
424.000000	0.127836
