PE UV       SUBTECH     SPECTRUM    ASCII       PEDS        4.00        
   -1
180621-5 Z SiO2.Sample.asc
18/06/21
12:58:36.00
18/06/21
12:58:36.00
Analyst
Moxtek
424.000000
1
Lambda 950
950L1201053
PerkinElmer UV WinLab 6.0.4.0738 / 1.61.00 Lambda 900

0
0
3350/16 889.8/4
0
0
VIS
1
1
1
CommonBeamDepol,RBeamAtt,SBeamAtt,universal reflectance
0
0
0
0
Program
 
0
3350/0.12 889.8/0.12
0
0
0
 
 
 
0
 
889.8
150
889.8
Front
31
on
3350/S:100 3350/R:100
 
0
0
0
 
0
 
 
 
0
 
 
0
0
8.0
4.00
4.00
False
False
202L1112213
 
0
0


0
0
#HDR
-1
-1
#GR
nm
%R
1.0
0.0
670.000000
-2.000000
124
8
0.461132
0.018279
#DATA
670.000000	0.461132
668.000000	0.429912
666.000000	0.400742
664.000000	0.373834
662.000000	0.349685
660.000000	0.325105
658.000000	0.298468
656.000000	0.280149
654.000000	0.261405
652.000000	0.245838
650.000000	0.227755
648.000000	0.213087
646.000000	0.198726
644.000000	0.184180
642.000000	0.175448
640.000000	0.165424
638.000000	0.157104
636.000000	0.151002
634.000000	0.142214
632.000000	0.140351
630.000000	0.137226
628.000000	0.130805
626.000000	0.129738
624.000000	0.129114
622.000000	0.128590
620.000000	0.129263
618.000000	0.128740
616.000000	0.131283
614.000000	0.133086
612.000000	0.135126
610.000000	0.138939
608.000000	0.144254
606.000000	0.145745
604.000000	0.151401
602.000000	0.158471
600.000000	0.163422
598.000000	0.167522
596.000000	0.172788
594.000000	0.180261
592.000000	0.186148
590.000000	0.190843
588.000000	0.196493
586.000000	0.202635
584.000000	0.208744
582.000000	0.213637
580.000000	0.219074
578.000000	0.223431
576.000000	0.228141
574.000000	0.232065
572.000000	0.236343
570.000000	0.239113
568.000000	0.240976
566.000000	0.241835
564.000000	0.246810
562.000000	0.247581
560.000000	0.249770
558.000000	0.247816
556.000000	0.244006
554.000000	0.246778
552.000000	0.243673
550.000000	0.241990
548.000000	0.240579
546.000000	0.238456
544.000000	0.233818
542.000000	0.229987
540.000000	0.226020
538.000000	0.222564
536.000000	0.216946
534.000000	0.211464
532.000000	0.205482
530.000000	0.199265
528.000000	0.193215
526.000000	0.187190
524.000000	0.179438
522.000000	0.172979
520.000000	0.165311
518.000000	0.157413
516.000000	0.150016
514.000000	0.143139
512.000000	0.136837
510.000000	0.130273
508.000000	0.122536
506.000000	0.116533
504.000000	0.111004
502.000000	0.104883
500.000000	0.099719
498.000000	0.095141
496.000000	0.091789
494.000000	0.085000
492.000000	0.079606
490.000000	0.078417
488.000000	0.073361
486.000000	0.068721
484.000000	0.065169
482.000000	0.062235
480.000000	0.058839
478.000000	0.055562
476.000000	0.051216
474.000000	0.050490
472.000000	0.048393
470.000000	0.046551
468.000000	0.043204
466.000000	0.040667
464.000000	0.038019
462.000000	0.037555
460.000000	0.034008
458.000000	0.031555
456.000000	0.030241
454.000000	0.028346
452.000000	0.025633
450.000000	0.020661
448.000000	0.024069
446.000000	0.019918
444.000000	0.018279
442.000000	0.018524
440.000000	0.019538
438.000000	0.024168
436.000000	0.030989
434.000000	0.039547
432.000000	0.051410
430.000000	0.070829
428.000000	0.092287
426.000000	0.124250
424.000000	0.160163
