PE UV       SUBTECH     SPECTRUM    ASCII       PEDS        4.00        
   -1
180621-8R.Sample.asc
18/06/21
18:28:48.00
18/06/21
18:28:48.00
Analyst
MOXSIO2 test
400.000000
1
Lambda 950
950L1201053
PerkinElmer UV WinLab 6.0.4.0738 / 1.61.00 Lambda 900

0
0
3350/16 889.8/4
0
0
VIS
1
1
1
CommonBeamDepol,RBeamAtt,SBeamAtt,universal reflectance
0
0
0
0
Program
 
0
3350/1 889.8/0.28
0
0
0
 
 
 
0
 
889.8
150
889.8
Front
31
on
3350/S:100 3350/R:100
 
0
0
0
 
0
 
 
 
0
 
 
0
0
8.0
4.00
4.00
False
False
202L1112213
 
0
0


0
0
#HDR
-1
-1
#GR
nm
%R
1.0
0.0
700.000000
-2.000000
151
8
2.444159
0.084794
#DATA
700.000000	1.481379
698.000000	1.409767
696.000000	1.338365
694.000000	1.274191
692.000000	1.208830
690.000000	1.145282
688.000000	1.085450
686.000000	1.023779
684.000000	0.968381
682.000000	0.914933
680.000000	0.862672
678.000000	0.810663
676.000000	0.763509
674.000000	0.720122
672.000000	0.676833
670.000000	0.634343
668.000000	0.595651
666.000000	0.558005
664.000000	0.523268
662.000000	0.491704
660.000000	0.459555
658.000000	0.430990
656.000000	0.403314
654.000000	0.379114
652.000000	0.355244
650.000000	0.334147
648.000000	0.312747
646.000000	0.295978
644.000000	0.282233
642.000000	0.265730
640.000000	0.254513
638.000000	0.243903
636.000000	0.232379
634.000000	0.227734
632.000000	0.220832
630.000000	0.216272
628.000000	0.211516
626.000000	0.209059
624.000000	0.210560
622.000000	0.208720
620.000000	0.210895
618.000000	0.213729
616.000000	0.216729
614.000000	0.223366
612.000000	0.227496
610.000000	0.233174
608.000000	0.241731
606.000000	0.245522
604.000000	0.257179
602.000000	0.265194
600.000000	0.275307
598.000000	0.285387
596.000000	0.296289
594.000000	0.306240
592.000000	0.315319
590.000000	0.325551
588.000000	0.337114
586.000000	0.348212
584.000000	0.359283
582.000000	0.368142
580.000000	0.380732
578.000000	0.389489
576.000000	0.399161
574.000000	0.408260
572.000000	0.417724
570.000000	0.426599
568.000000	0.435081
566.000000	0.441485
564.000000	0.449619
562.000000	0.457204
560.000000	0.464120
558.000000	0.467376
556.000000	0.470073
554.000000	0.473698
552.000000	0.477132
550.000000	0.477215
548.000000	0.478446
546.000000	0.478661
544.000000	0.477807
542.000000	0.476601
540.000000	0.473771
538.000000	0.470415
536.000000	0.466735
534.000000	0.461180
532.000000	0.454706
530.000000	0.448457
528.000000	0.441682
526.000000	0.432683
524.000000	0.424640
522.000000	0.415353
520.000000	0.405285
518.000000	0.394800
516.000000	0.383711
514.000000	0.373113
512.000000	0.361777
510.000000	0.349020
508.000000	0.337484
506.000000	0.325386
504.000000	0.313135
502.000000	0.301031
500.000000	0.289503
498.000000	0.277080
496.000000	0.266479
494.000000	0.253447
492.000000	0.241038
490.000000	0.228617
488.000000	0.217729
486.000000	0.206105
484.000000	0.191927
482.000000	0.180607
480.000000	0.172246
478.000000	0.161430
476.000000	0.154110
474.000000	0.144865
472.000000	0.136723
470.000000	0.129584
468.000000	0.121799
466.000000	0.114842
464.000000	0.110119
462.000000	0.104424
460.000000	0.099771
458.000000	0.095629
456.000000	0.092993
454.000000	0.089366
452.000000	0.087382
450.000000	0.085662
448.000000	0.084794
446.000000	0.085476
444.000000	0.085408
442.000000	0.086948
440.000000	0.091984
438.000000	0.100858
436.000000	0.110784
434.000000	0.122167
432.000000	0.142979
430.000000	0.164843
428.000000	0.193868
426.000000	0.228106
424.000000	0.270947
422.000000	0.325010
420.000000	0.395017
418.000000	0.477696
416.000000	0.575143
414.000000	0.692799
412.000000	0.836046
410.000000	1.008996
408.000000	1.212674
406.000000	1.448309
404.000000	1.730021
402.000000	2.059565
400.000000	2.444159
