PE UV       SUBTECH     SPECTRUM    ASCII       PEDS        4.00        
   -1
180622-4 Z.Sample.asc
18/06/22
18:00:50.00
18/06/22
18:00:50.00
Analyst
Moxtek
424.000000
1
Lambda 950
950L1201053
PerkinElmer UV WinLab 6.0.4.0738 / 1.61.00 Lambda 900

0
0
3350/16 889.8/4
0
0
VIS
1
1
1
CommonBeamDepol,RBeamAtt,SBeamAtt,universal reflectance
0
0
0
0
Program
 
0
3350/0.12 889.8/0.12
0
0
0
 
 
 
0
 
889.8
150
889.8
Front
31
on
3350/S:100 3350/R:100
 
0
0
0
 
0
 
 
 
0
 
 
0
0
8.0
4.00
4.00
False
False
202L1112213
 
0
0


0
0
#HDR
-1
-1
#GR
nm
%R
1.0
0.0
670.000000
-2.000000
124
8
0.819209
0.082270
#DATA
670.000000	0.819209
668.000000	0.776064
666.000000	0.735197
664.000000	0.694494
662.000000	0.657046
660.000000	0.621056
658.000000	0.589219
656.000000	0.561366
654.000000	0.528659
652.000000	0.503231
650.000000	0.478545
648.000000	0.455760
646.000000	0.434490
644.000000	0.415107
642.000000	0.394254
640.000000	0.377763
638.000000	0.367625
636.000000	0.352484
634.000000	0.338099
632.000000	0.333943
630.000000	0.320153
628.000000	0.313375
626.000000	0.309871
624.000000	0.306544
622.000000	0.303237
620.000000	0.302041
618.000000	0.300313
616.000000	0.301757
614.000000	0.304005
612.000000	0.304020
610.000000	0.307698
608.000000	0.309656
606.000000	0.313157
604.000000	0.320009
602.000000	0.328775
600.000000	0.334208
598.000000	0.338556
596.000000	0.345831
594.000000	0.354606
592.000000	0.360217
590.000000	0.368857
588.000000	0.376202
586.000000	0.383582
584.000000	0.392502
582.000000	0.398785
580.000000	0.405061
578.000000	0.411966
576.000000	0.420802
574.000000	0.426823
572.000000	0.433095
570.000000	0.436473
568.000000	0.441802
566.000000	0.444908
564.000000	0.450226
562.000000	0.453837
560.000000	0.459620
558.000000	0.456146
556.000000	0.457810
554.000000	0.457499
552.000000	0.457437
550.000000	0.456073
548.000000	0.453377
546.000000	0.449270
544.000000	0.446046
542.000000	0.442874
540.000000	0.437580
538.000000	0.430250
536.000000	0.426850
534.000000	0.416621
532.000000	0.409389
530.000000	0.402020
528.000000	0.393101
526.000000	0.383748
524.000000	0.372779
522.000000	0.362203
520.000000	0.352241
518.000000	0.340144
516.000000	0.328526
514.000000	0.316987
512.000000	0.305609
510.000000	0.292581
508.000000	0.282657
506.000000	0.269323
504.000000	0.257769
502.000000	0.246736
500.000000	0.235660
498.000000	0.223623
496.000000	0.212641
494.000000	0.200078
492.000000	0.192940
490.000000	0.181943
488.000000	0.170543
486.000000	0.165198
484.000000	0.152726
482.000000	0.145524
480.000000	0.138146
478.000000	0.127848
476.000000	0.122245
474.000000	0.116033
472.000000	0.112261
470.000000	0.107333
468.000000	0.102312
466.000000	0.097958
464.000000	0.094935
462.000000	0.091355
460.000000	0.088513
458.000000	0.085339
456.000000	0.084698
454.000000	0.082416
452.000000	0.082589
450.000000	0.082270
448.000000	0.083633
446.000000	0.084894
444.000000	0.085150
442.000000	0.085441
440.000000	0.090204
438.000000	0.088788
436.000000	0.095731
434.000000	0.106687
432.000000	0.119596
430.000000	0.135245
428.000000	0.156482
426.000000	0.183889
424.000000	0.214497
