PE UV       SUBTECH     SPECTRUM    ASCII       PEDS        4.00        
   -1
180620-3R.Sample.asc
18/06/20
17:46:40.00
18/06/20
17:46:40.00
Analyst
MOXSIO2 test
400.000000
1
Lambda 950
950L1201053
PerkinElmer UV WinLab 6.0.4.0738 / 1.61.00 Lambda 900

0
0
3350/16 889.8/4
0
0
VIS
1
1
1
CommonBeamDepol,RBeamAtt,SBeamAtt,universal reflectance
0
0
0
0
Program
 
0
3350/1 889.8/0.28
0
0
0
 
 
 
0
 
889.8
150
889.8
Front
31
on
3350/S:100 3350/R:100
 
0
0
0
 
0
 
 
 
0
 
 
0
0
8.0
4.00
4.00
False
False
202L1112213
 
0
0


0
0
#HDR
-1
-1
#GR
nm
%R
1.0
0.0
700.000000
-2.000000
151
8
1.835685
0.045226
#DATA
700.000000	1.749189
698.000000	1.668087
696.000000	1.591853
694.000000	1.520400
692.000000	1.446641
690.000000	1.375936
688.000000	1.302286
686.000000	1.237363
684.000000	1.173004
682.000000	1.106453
680.000000	1.046604
678.000000	0.987111
676.000000	0.930104
674.000000	0.877754
672.000000	0.823336
670.000000	0.775307
668.000000	0.725569
666.000000	0.680606
664.000000	0.634942
662.000000	0.591294
660.000000	0.554457
658.000000	0.514019
656.000000	0.479067
654.000000	0.443943
652.000000	0.412634
650.000000	0.383099
648.000000	0.352774
646.000000	0.326760
644.000000	0.301416
642.000000	0.279825
640.000000	0.258487
638.000000	0.239477
636.000000	0.222315
634.000000	0.205488
632.000000	0.193028
630.000000	0.180215
628.000000	0.168996
626.000000	0.158840
624.000000	0.151432
622.000000	0.144239
620.000000	0.140013
618.000000	0.133916
616.000000	0.134955
614.000000	0.132206
612.000000	0.131117
610.000000	0.132096
608.000000	0.132604
606.000000	0.134117
604.000000	0.140069
602.000000	0.143130
600.000000	0.148408
598.000000	0.152698
596.000000	0.159983
594.000000	0.167024
592.000000	0.174388
590.000000	0.181029
588.000000	0.188881
586.000000	0.197356
584.000000	0.206059
582.000000	0.214107
580.000000	0.222040
578.000000	0.230633
576.000000	0.239596
574.000000	0.247414
572.000000	0.254863
570.000000	0.261639
568.000000	0.269327
566.000000	0.276355
564.000000	0.282351
562.000000	0.289045
560.000000	0.297207
558.000000	0.300000
556.000000	0.303786
554.000000	0.307639
552.000000	0.312022
550.000000	0.312456
548.000000	0.315375
546.000000	0.316362
544.000000	0.317662
542.000000	0.317940
540.000000	0.316850
538.000000	0.316050
536.000000	0.313880
534.000000	0.309818
532.000000	0.307206
530.000000	0.303900
528.000000	0.299262
526.000000	0.294098
524.000000	0.288504
522.000000	0.283082
520.000000	0.276702
518.000000	0.269799
516.000000	0.263097
514.000000	0.256352
512.000000	0.249353
510.000000	0.241612
508.000000	0.234041
506.000000	0.226972
504.000000	0.219559
502.000000	0.211797
500.000000	0.203520
498.000000	0.197470
496.000000	0.188477
494.000000	0.181844
492.000000	0.174089
490.000000	0.166998
488.000000	0.158958
486.000000	0.150679
484.000000	0.144049
482.000000	0.136196
480.000000	0.129016
478.000000	0.122469
476.000000	0.116269
474.000000	0.110505
472.000000	0.105469
470.000000	0.099585
468.000000	0.094125
466.000000	0.088366
464.000000	0.084923
462.000000	0.079314
460.000000	0.074487
458.000000	0.069967
456.000000	0.065780
454.000000	0.064618
452.000000	0.059524
450.000000	0.055632
448.000000	0.051758
446.000000	0.049450
444.000000	0.047471
442.000000	0.045226
440.000000	0.045801
438.000000	0.047514
436.000000	0.051047
434.000000	0.055173
432.000000	0.065214
430.000000	0.076184
428.000000	0.091894
426.000000	0.112468
424.000000	0.140624
422.000000	0.177859
420.000000	0.227110
418.000000	0.284008
416.000000	0.357634
414.000000	0.443998
412.000000	0.551407
410.000000	0.685719
408.000000	0.843872
406.000000	1.032166
404.000000	1.252655
402.000000	1.519272
400.000000	1.835685
