PE UV       SUBTECH     SPECTRUM    ASCII       PEDS        4.00        
   -1
180627-5.Sample.asc
18/06/27
16:30:04.00
18/06/27
16:30:04.00
Analyst
Moxsio2 test
420.000000
1
Lambda 950
950L1201053
PerkinElmer UV WinLab 6.0.4.0738 / 1.61.00 Lambda 900

0
0
3350/16 889.8/4
0
0
VIS
1
1
1
CommonBeamDepol,RBeamAtt,SBeamAtt,universal reflectance
0
0
0
0
Program
 
0
3350/0.12 889.8/0.12
0
0
0
 
 
 
0
 
889.8
150
889.8
Front
31
on
3350/S:100 3350/R:100
 
0
0
0
 
0
 
 
 
0
 
 
0
0
8.0
4.00
4.00
False
False
202L1112213
 
0
0


0
0
#HDR
-1
-1
#GR
nm
%R
1.0
0.0
670.000000
-2.000000
126
8
0.720396
0.024037
#DATA
670.000000	0.720396
668.000000	0.672839
666.000000	0.628569
664.000000	0.587379
662.000000	0.547531
660.000000	0.507145
658.000000	0.471438
656.000000	0.436173
654.000000	0.406341
652.000000	0.376761
650.000000	0.347875
648.000000	0.318518
646.000000	0.295328
644.000000	0.273395
642.000000	0.249221
640.000000	0.230870
638.000000	0.214315
636.000000	0.197972
634.000000	0.186446
632.000000	0.171420
630.000000	0.161757
628.000000	0.151775
626.000000	0.145112
624.000000	0.137626
622.000000	0.132343
620.000000	0.127896
618.000000	0.123923
616.000000	0.123524
614.000000	0.123127
612.000000	0.122443
610.000000	0.123243
608.000000	0.123237
606.000000	0.128748
604.000000	0.131600
602.000000	0.134939
600.000000	0.142775
598.000000	0.147797
596.000000	0.154274
594.000000	0.161906
592.000000	0.166604
590.000000	0.171877
588.000000	0.181632
586.000000	0.188506
584.000000	0.195967
582.000000	0.203307
580.000000	0.212299
578.000000	0.218716
576.000000	0.227578
574.000000	0.232415
572.000000	0.239204
570.000000	0.246061
568.000000	0.251561
566.000000	0.256524
564.000000	0.261015
562.000000	0.265998
560.000000	0.274883
558.000000	0.273506
556.000000	0.274058
554.000000	0.279048
552.000000	0.278070
550.000000	0.278549
548.000000	0.279607
546.000000	0.279840
544.000000	0.278447
542.000000	0.277091
540.000000	0.273656
538.000000	0.269407
536.000000	0.265623
534.000000	0.260519
532.000000	0.254952
530.000000	0.248195
528.000000	0.242948
526.000000	0.234815
524.000000	0.227508
522.000000	0.217832
520.000000	0.210563
518.000000	0.200356
516.000000	0.191839
514.000000	0.181734
512.000000	0.172256
510.000000	0.163535
508.000000	0.154354
506.000000	0.144972
504.000000	0.135334
502.000000	0.126685
500.000000	0.119112
498.000000	0.109470
496.000000	0.104461
494.000000	0.097974
492.000000	0.087206
490.000000	0.080041
488.000000	0.075610
486.000000	0.070112
484.000000	0.061965
482.000000	0.053773
480.000000	0.048097
478.000000	0.042993
476.000000	0.040524
474.000000	0.037540
472.000000	0.033474
470.000000	0.034428
468.000000	0.030003
466.000000	0.029103
464.000000	0.028560
462.000000	0.028853
460.000000	0.028581
458.000000	0.029217
456.000000	0.028779
454.000000	0.032749
452.000000	0.031943
450.000000	0.029227
448.000000	0.031803
446.000000	0.028015
444.000000	0.026974
442.000000	0.026508
440.000000	0.024588
438.000000	0.024037
436.000000	0.026003
434.000000	0.024740
432.000000	0.026521
430.000000	0.035345
428.000000	0.041159
426.000000	0.055005
424.000000	0.068799
422.000000	0.092442
420.000000	0.126941
