PE UV       SUBTECH     SPECTRUM    ASCII       PEDS        4.00        
   -1
180629-4 Z REFL.Sample.asc
18/06/29
12:58:31.00
18/06/29
12:58:31.00
Analyst
Moxtek
420.000000
1
Lambda 950
950L1201053
PerkinElmer UV WinLab 6.0.4.0738 / 1.61.00 Lambda 900

0
0
3350/16 889.8/4
0
0
VIS
1
1
1
CommonBeamDepol,RBeamAtt,SBeamAtt,universal reflectance
0
0
0
0
Program
 
0
3350/0.12 889.8/0.12
0
0
0
 
 
 
0
 
889.8
150
889.8
Front
31
on
3350/S:100 3350/R:100
 
0
0
0
 
0
 
 
 
0
 
 
0
0
8.0
4.00
4.00
False
False
202L1112213
 
0
0


0
0
#HDR
-1
-1
#GR
nm
%R
1.0
0.0
670.000000
-2.000000
126
8
1.098298
0.031989
#DATA
670.000000	1.098298
668.000000	1.034146
666.000000	0.971482
664.000000	0.915968
662.000000	0.857008
660.000000	0.802592
658.000000	0.750228
656.000000	0.702754
654.000000	0.652548
652.000000	0.605507
650.000000	0.564553
648.000000	0.522420
646.000000	0.488335
644.000000	0.451005
642.000000	0.417290
640.000000	0.384948
638.000000	0.351989
636.000000	0.326361
634.000000	0.301213
632.000000	0.275232
630.000000	0.251931
628.000000	0.233682
626.000000	0.218012
624.000000	0.201769
622.000000	0.185983
620.000000	0.172788
618.000000	0.163477
616.000000	0.155477
614.000000	0.147009
612.000000	0.139291
610.000000	0.136042
608.000000	0.131155
606.000000	0.131874
604.000000	0.131584
602.000000	0.130354
600.000000	0.129674
598.000000	0.135598
596.000000	0.136213
594.000000	0.142541
592.000000	0.149233
590.000000	0.153277
588.000000	0.162488
586.000000	0.169610
584.000000	0.176206
582.000000	0.182738
580.000000	0.193484
578.000000	0.199104
576.000000	0.210701
574.000000	0.219823
572.000000	0.227269
570.000000	0.237358
568.000000	0.249124
566.000000	0.255474
564.000000	0.261991
562.000000	0.275621
560.000000	0.285586
558.000000	0.288927
556.000000	0.295992
554.000000	0.303850
552.000000	0.310174
550.000000	0.313744
548.000000	0.317552
546.000000	0.323921
544.000000	0.327924
542.000000	0.329975
540.000000	0.333415
538.000000	0.333909
536.000000	0.334054
534.000000	0.336210
532.000000	0.335384
530.000000	0.332899
528.000000	0.329670
526.000000	0.326250
524.000000	0.322124
522.000000	0.318516
520.000000	0.311265
518.000000	0.307082
516.000000	0.300645
514.000000	0.291949
512.000000	0.284887
510.000000	0.276686
508.000000	0.266663
506.000000	0.258429
504.000000	0.250112
502.000000	0.239792
500.000000	0.230775
498.000000	0.222327
496.000000	0.213394
494.000000	0.203351
492.000000	0.192954
490.000000	0.183792
488.000000	0.172281
486.000000	0.161387
484.000000	0.146720
482.000000	0.138213
480.000000	0.126615
478.000000	0.117606
476.000000	0.109350
474.000000	0.102690
472.000000	0.094535
470.000000	0.085487
468.000000	0.081560
466.000000	0.072178
464.000000	0.069162
462.000000	0.063160
460.000000	0.057228
458.000000	0.053446
456.000000	0.048857
454.000000	0.050327
452.000000	0.044208
450.000000	0.040253
448.000000	0.042570
446.000000	0.038024
444.000000	0.036105
442.000000	0.034073
440.000000	0.031989
438.000000	0.033612
436.000000	0.033609
434.000000	0.034367
432.000000	0.036953
430.000000	0.047523
428.000000	0.053045
426.000000	0.064834
424.000000	0.081006
422.000000	0.103207
420.000000	0.125193
