PE UV       SUBTECH     SPECTRUM    ASCII       PEDS        4.00        
   -1
180621-6 Z SiO2.Sample.asc
18/06/21
15:19:13.00
18/06/21
15:19:13.00
Analyst
Moxtek
424.000000
1
Lambda 950
950L1201053
PerkinElmer UV WinLab 6.0.4.0738 / 1.61.00 Lambda 900

0
0
3350/16 889.8/4
0
0
VIS
1
1
1
CommonBeamDepol,RBeamAtt,SBeamAtt,universal reflectance
0
0
0
0
Program
 
0
3350/0.12 889.8/0.12
0
0
0
 
 
 
0
 
889.8
150
889.8
Front
31
on
3350/S:100 3350/R:100
 
0
0
0
 
0
 
 
 
0
 
 
0
0
8.0
4.00
4.00
False
False
202L1112213
 
0
0


0
0
#HDR
-1
-1
#GR
nm
%R
1.0
0.0
670.000000
-2.000000
124
8
0.441493
0.014310
#DATA
670.000000	0.441493
668.000000	0.413132
666.000000	0.383008
664.000000	0.357576
662.000000	0.335064
660.000000	0.309822
658.000000	0.287554
656.000000	0.266957
654.000000	0.248275
652.000000	0.236095
650.000000	0.217134
648.000000	0.204208
646.000000	0.189026
644.000000	0.174838
642.000000	0.168054
640.000000	0.156947
638.000000	0.149916
636.000000	0.141971
634.000000	0.135021
632.000000	0.132751
630.000000	0.126939
628.000000	0.125102
626.000000	0.123675
624.000000	0.120887
622.000000	0.121180
620.000000	0.121856
618.000000	0.119485
616.000000	0.122953
614.000000	0.123569
612.000000	0.129256
610.000000	0.130445
608.000000	0.134421
606.000000	0.139209
604.000000	0.144449
602.000000	0.148730
600.000000	0.152490
598.000000	0.156501
596.000000	0.162384
594.000000	0.169027
592.000000	0.174340
590.000000	0.179389
588.000000	0.184735
586.000000	0.190199
584.000000	0.196520
582.000000	0.200475
580.000000	0.204827
578.000000	0.210018
576.000000	0.213895
574.000000	0.218906
572.000000	0.221623
570.000000	0.225266
568.000000	0.227302
566.000000	0.230071
564.000000	0.232874
562.000000	0.235563
560.000000	0.237699
558.000000	0.235764
556.000000	0.233697
554.000000	0.234136
552.000000	0.233259
550.000000	0.229808
548.000000	0.229123
546.000000	0.226108
544.000000	0.221624
542.000000	0.220019
540.000000	0.217608
538.000000	0.211184
536.000000	0.207439
534.000000	0.201798
532.000000	0.196073
530.000000	0.190160
528.000000	0.185303
526.000000	0.178596
524.000000	0.173085
522.000000	0.166519
520.000000	0.160047
518.000000	0.152305
516.000000	0.146784
514.000000	0.140171
512.000000	0.133716
510.000000	0.127728
508.000000	0.122122
506.000000	0.115964
504.000000	0.110591
502.000000	0.105862
500.000000	0.102904
498.000000	0.097356
496.000000	0.093853
494.000000	0.089852
492.000000	0.086748
490.000000	0.083971
488.000000	0.081113
486.000000	0.081975
484.000000	0.075437
482.000000	0.074220
480.000000	0.072430
478.000000	0.070625
476.000000	0.071303
474.000000	0.071558
472.000000	0.071932
470.000000	0.071613
468.000000	0.071710
466.000000	0.070014
464.000000	0.072273
462.000000	0.072185
460.000000	0.073172
458.000000	0.073454
456.000000	0.073754
454.000000	0.070031
452.000000	0.070021
450.000000	0.069390
448.000000	0.066555
446.000000	0.058969
444.000000	0.051947
442.000000	0.050677
440.000000	0.042920
438.000000	0.038280
436.000000	0.026562
434.000000	0.027366
432.000000	0.023517
430.000000	0.015359
428.000000	0.014730
426.000000	0.014310
424.000000	0.018594
