PE UV       SUBTECH     SPECTRUM    ASCII       PEDS        4.00        
   -1
180626-5 Z refl.Sample.asc
18/06/26
14:52:59.00
18/06/26
14:52:59.00
Analyst
Moxtek
420.000000
1
Lambda 950
950L1201053
PerkinElmer UV WinLab 6.0.4.0738 / 1.61.00 Lambda 900

0
0
3350/16 889.8/4
0
0
VIS
1
1
1
CommonBeamDepol,RBeamAtt,SBeamAtt,universal reflectance
0
0
0
0
Program
 
0
3350/0.12 889.8/0.12
0
0
0
 
 
 
0
 
889.8
150
889.8
Front
31
on
3350/S:100 3350/R:100
 
0
0
0
 
0
 
 
 
0
 
 
0
0
8.0
4.00
4.00
False
False
202L1112213
 
0
0


0
0
#HDR
-1
-1
#GR
nm
%R
1.0
0.0
670.000000
-2.000000
126
8
0.626020
0.011932
#DATA
670.000000	0.626020
668.000000	0.580048
666.000000	0.544582
664.000000	0.506694
662.000000	0.466966
660.000000	0.432374
658.000000	0.401941
656.000000	0.371055
654.000000	0.347680
652.000000	0.317179
650.000000	0.296069
648.000000	0.271796
646.000000	0.249926
644.000000	0.233806
642.000000	0.216096
640.000000	0.204013
638.000000	0.185030
636.000000	0.174617
634.000000	0.166231
632.000000	0.153344
630.000000	0.148170
628.000000	0.143292
626.000000	0.137939
624.000000	0.138835
622.000000	0.135034
620.000000	0.130399
618.000000	0.132772
616.000000	0.134531
614.000000	0.133583
612.000000	0.136113
610.000000	0.140656
608.000000	0.141391
606.000000	0.151671
604.000000	0.157165
602.000000	0.162508
600.000000	0.168437
598.000000	0.179934
596.000000	0.187106
594.000000	0.193973
592.000000	0.201404
590.000000	0.209612
588.000000	0.220236
586.000000	0.228574
584.000000	0.233084
582.000000	0.244605
580.000000	0.248493
578.000000	0.257436
576.000000	0.266679
574.000000	0.273466
572.000000	0.278952
570.000000	0.284898
568.000000	0.290572
566.000000	0.297235
564.000000	0.302660
562.000000	0.307712
560.000000	0.312951
558.000000	0.312943
556.000000	0.313813
554.000000	0.314785
552.000000	0.314930
550.000000	0.313644
548.000000	0.312793
546.000000	0.313317
544.000000	0.310601
542.000000	0.304991
540.000000	0.303210
538.000000	0.298634
536.000000	0.291160
534.000000	0.285113
532.000000	0.277127
530.000000	0.270898
528.000000	0.262030
526.000000	0.252912
524.000000	0.244501
522.000000	0.233925
520.000000	0.224502
518.000000	0.214033
516.000000	0.203627
514.000000	0.192572
512.000000	0.181814
510.000000	0.171929
508.000000	0.160998
506.000000	0.150904
504.000000	0.140242
502.000000	0.129500
500.000000	0.120392
498.000000	0.110443
496.000000	0.100555
494.000000	0.093895
492.000000	0.083172
490.000000	0.078157
488.000000	0.066379
486.000000	0.060792
484.000000	0.055051
482.000000	0.044713
480.000000	0.039807
478.000000	0.035414
476.000000	0.031705
474.000000	0.025864
472.000000	0.023770
470.000000	0.024597
468.000000	0.021044
466.000000	0.020892
464.000000	0.020479
462.000000	0.017632
460.000000	0.016430
458.000000	0.017121
456.000000	0.019262
454.000000	0.016859
452.000000	0.018981
450.000000	0.014496
448.000000	0.017721
446.000000	0.018817
444.000000	0.013094
442.000000	0.015283
440.000000	0.014258
438.000000	0.011932
436.000000	0.017687
434.000000	0.018488
432.000000	0.026139
430.000000	0.036993
428.000000	0.047876
426.000000	0.067183
424.000000	0.091149
422.000000	0.129429
420.000000	0.178465
