PE UV       SUBTECH     SPECTRUM    ASCII       PEDS        4.00        
   -1
180618-7.Sample.asc
18/06/18
19:05:06.00
18/06/18
19:05:06.00
Analyst
MOXSIO2 test
400.000000
1
Lambda 950
950L1201053
PerkinElmer UV WinLab 6.0.4.0738 / 1.61.00 Lambda 900

0
0
3350/16 889.8/4
0
0
VIS
1
1
1
CommonBeamDepol,RBeamAtt,SBeamAtt,universal reflectance
0
0
0
0
Program
 
0
3350/1 889.8/0.28
0
0
0
 
 
 
0
 
889.8
150
889.8
Front
31
on
3350/S:100 3350/R:100
 
0
0
0
 
0
 
 
 
0
 
 
0
0
8.0
4.00
4.00
False
False
202L1112213
 
0
0


0
0
#HDR
-1
-1
#GR
nm
%R
1.0
0.0
700.000000
-2.000000
151
8
3.649301
0.023861
#DATA
700.000000	1.496128
698.000000	1.427827
696.000000	1.359147
694.000000	1.291712
692.000000	1.227416
690.000000	1.164674
688.000000	1.103733
686.000000	1.043993
684.000000	0.987757
682.000000	0.934742
680.000000	0.880209
678.000000	0.832763
676.000000	0.781820
674.000000	0.739092
672.000000	0.695770
670.000000	0.652941
668.000000	0.612936
666.000000	0.574775
664.000000	0.540981
662.000000	0.506880
660.000000	0.475917
658.000000	0.444814
656.000000	0.416918
654.000000	0.393557
652.000000	0.366953
650.000000	0.343996
648.000000	0.324407
646.000000	0.303811
644.000000	0.286721
642.000000	0.273356
640.000000	0.257959
638.000000	0.244604
636.000000	0.233694
634.000000	0.223102
632.000000	0.213594
630.000000	0.210269
628.000000	0.200815
626.000000	0.196309
624.000000	0.192132
622.000000	0.192214
620.000000	0.188816
618.000000	0.188324
616.000000	0.187696
614.000000	0.188732
612.000000	0.190345
610.000000	0.192306
608.000000	0.196140
606.000000	0.198801
604.000000	0.203372
602.000000	0.209040
600.000000	0.214140
598.000000	0.218464
596.000000	0.221598
594.000000	0.227012
592.000000	0.234098
590.000000	0.240587
588.000000	0.244277
586.000000	0.249657
584.000000	0.256930
582.000000	0.261939
580.000000	0.268006
578.000000	0.271070
576.000000	0.275780
574.000000	0.280024
572.000000	0.282027
570.000000	0.288309
568.000000	0.289456
566.000000	0.290966
564.000000	0.293122
562.000000	0.294567
560.000000	0.298065
558.000000	0.296638
556.000000	0.293373
554.000000	0.295098
552.000000	0.291103
550.000000	0.288716
548.000000	0.285292
546.000000	0.282711
544.000000	0.278038
542.000000	0.272750
540.000000	0.267798
538.000000	0.261651
536.000000	0.255644
534.000000	0.247294
532.000000	0.239857
530.000000	0.232610
528.000000	0.224470
526.000000	0.216373
524.000000	0.207719
522.000000	0.198593
520.000000	0.188438
518.000000	0.179336
516.000000	0.170580
514.000000	0.161393
512.000000	0.152040
510.000000	0.142024
508.000000	0.133152
506.000000	0.124822
504.000000	0.116196
502.000000	0.108313
500.000000	0.100416
498.000000	0.092968
496.000000	0.086035
494.000000	0.078986
492.000000	0.072447
490.000000	0.067194
488.000000	0.059308
486.000000	0.054885
484.000000	0.048569
482.000000	0.043692
480.000000	0.039564
478.000000	0.034190
476.000000	0.032467
474.000000	0.029142
472.000000	0.027548
470.000000	0.025715
468.000000	0.024354
466.000000	0.023965
464.000000	0.023861
462.000000	0.024901
460.000000	0.023940
458.000000	0.025551
456.000000	0.027348
454.000000	0.031096
452.000000	0.032651
450.000000	0.035190
448.000000	0.042334
446.000000	0.049387
444.000000	0.057095
442.000000	0.066615
440.000000	0.079814
438.000000	0.094917
436.000000	0.118472
434.000000	0.146018
432.000000	0.180154
430.000000	0.219375
428.000000	0.272946
426.000000	0.334581
424.000000	0.406806
422.000000	0.498675
420.000000	0.609163
418.000000	0.740988
416.000000	0.897104
414.000000	1.077776
412.000000	1.296932
410.000000	1.560900
408.000000	1.863394
406.000000	2.211842
404.000000	2.622011
402.000000	3.094571
400.000000	3.649301
