PE UV       SUBTECH     SPECTRUM    ASCII       PEDS        4.00        
   -1
180628-1.Sample.asc
18/06/28
15:05:59.00
18/06/28
15:05:59.00
Analyst
Moxsio2 test
420.000000
1
Lambda 950
950L1201053
PerkinElmer UV WinLab 6.0.4.0738 / 1.61.00 Lambda 900

0
0
3350/16 889.8/4
0
0
VIS
1
1
1
CommonBeamDepol,RBeamAtt,SBeamAtt,universal reflectance
0
0
0
0
Program
 
0
3350/0.12 889.8/0.12
0
0
0
 
 
 
0
 
889.8
150
889.8
Front
31
on
3350/S:100 3350/R:100
 
0
0
0
 
0
 
 
 
0
 
 
0
0
8.0
4.00
4.00
False
False
202L1112213
 
0
0


0
0
#HDR
-1
-1
#GR
nm
%R
1.0
0.0
670.000000
-2.000000
126
8
0.701235
0.017101
#DATA
670.000000	0.701235
668.000000	0.658322
666.000000	0.610914
664.000000	0.570925
662.000000	0.532569
660.000000	0.491899
658.000000	0.454746
656.000000	0.420987
654.000000	0.389439
652.000000	0.358840
650.000000	0.331417
648.000000	0.303133
646.000000	0.281166
644.000000	0.257994
642.000000	0.233849
640.000000	0.215324
638.000000	0.195700
636.000000	0.182255
634.000000	0.167974
632.000000	0.156234
630.000000	0.141052
628.000000	0.134187
626.000000	0.124454
624.000000	0.117202
622.000000	0.110582
620.000000	0.107742
618.000000	0.100453
616.000000	0.102105
614.000000	0.099887
612.000000	0.100839
610.000000	0.099231
608.000000	0.103390
606.000000	0.103151
604.000000	0.106970
602.000000	0.112833
600.000000	0.114876
598.000000	0.123198
596.000000	0.128347
594.000000	0.132894
592.000000	0.138737
590.000000	0.145968
588.000000	0.150862
586.000000	0.160005
584.000000	0.166334
582.000000	0.173455
580.000000	0.182546
578.000000	0.190882
576.000000	0.197387
574.000000	0.205286
572.000000	0.215302
570.000000	0.221502
568.000000	0.230804
566.000000	0.236261
564.000000	0.241666
562.000000	0.248094
560.000000	0.259282
558.000000	0.257938
556.000000	0.263150
554.000000	0.266815
552.000000	0.270412
550.000000	0.273061
548.000000	0.278217
546.000000	0.278115
544.000000	0.281559
542.000000	0.282266
540.000000	0.281257
538.000000	0.282338
536.000000	0.279927
534.000000	0.278063
532.000000	0.275773
530.000000	0.273845
528.000000	0.269520
526.000000	0.265023
524.000000	0.261253
522.000000	0.256659
520.000000	0.250369
518.000000	0.244743
516.000000	0.237286
514.000000	0.231368
512.000000	0.224443
510.000000	0.216940
508.000000	0.209394
506.000000	0.202399
504.000000	0.193525
502.000000	0.188100
500.000000	0.180338
498.000000	0.173479
496.000000	0.163960
494.000000	0.158578
492.000000	0.152098
490.000000	0.142216
488.000000	0.138609
486.000000	0.128864
484.000000	0.122482
482.000000	0.113843
480.000000	0.106248
478.000000	0.100126
476.000000	0.094952
474.000000	0.090398
472.000000	0.084520
470.000000	0.080325
468.000000	0.075207
466.000000	0.069619
464.000000	0.069357
462.000000	0.065463
460.000000	0.060494
458.000000	0.059261
456.000000	0.055300
454.000000	0.051001
452.000000	0.049051
450.000000	0.044995
448.000000	0.045480
446.000000	0.045842
444.000000	0.036221
442.000000	0.029110
440.000000	0.025355
438.000000	0.025390
436.000000	0.020316
434.000000	0.018069
432.000000	0.017101
430.000000	0.026732
428.000000	0.034594
426.000000	0.049306
424.000000	0.065487
422.000000	0.091035
420.000000	0.125409
