PE UV       SUBTECH     SPECTRUM    ASCII       PEDS        4.00        
   -1
180626-7R.Sample.asc
18/06/26
17:54:28.00
18/06/26
17:54:28.00
Analyst
Moxsio2 test
420.000000
1
Lambda 950
950L1201053
PerkinElmer UV WinLab 6.0.4.0738 / 1.61.00 Lambda 900

0
0
3350/16 889.8/4
0
0
VIS
1
1
1
CommonBeamDepol,RBeamAtt,SBeamAtt,universal reflectance
0
0
0
0
Program
 
0
3350/0.12 889.8/0.12
0
0
0
 
 
 
0
 
889.8
150
889.8
Front
31
on
3350/S:100 3350/R:100
 
0
0
0
 
0
 
 
 
0
 
 
0
0
8.0
4.00
4.00
False
False
202L1112213
 
0
0


0
0
#HDR
-1
-1
#GR
nm
%R
1.0
0.0
670.000000
-2.000000
126
8
0.620968
0.068398
#DATA
670.000000	0.620968
668.000000	0.585140
666.000000	0.549591
664.000000	0.513227
662.000000	0.477917
660.000000	0.447953
658.000000	0.420019
656.000000	0.389401
654.000000	0.368362
652.000000	0.344831
650.000000	0.322313
648.000000	0.304304
646.000000	0.286846
644.000000	0.273808
642.000000	0.259154
640.000000	0.244268
638.000000	0.232407
636.000000	0.225342
634.000000	0.218431
632.000000	0.212502
630.000000	0.208929
628.000000	0.207734
626.000000	0.203796
624.000000	0.202695
622.000000	0.203215
620.000000	0.203452
618.000000	0.205143
616.000000	0.211529
614.000000	0.214263
612.000000	0.220758
610.000000	0.226652
608.000000	0.231829
606.000000	0.241298
604.000000	0.250063
602.000000	0.259168
600.000000	0.268179
598.000000	0.277835
596.000000	0.290019
594.000000	0.300125
592.000000	0.310708
590.000000	0.322346
588.000000	0.333835
586.000000	0.343979
584.000000	0.353632
582.000000	0.362984
580.000000	0.371409
578.000000	0.383378
576.000000	0.391491
574.000000	0.400003
572.000000	0.409947
570.000000	0.417655
568.000000	0.423928
566.000000	0.432917
564.000000	0.439983
562.000000	0.444440
560.000000	0.454651
558.000000	0.455606
556.000000	0.453401
554.000000	0.457767
552.000000	0.461196
550.000000	0.462230
548.000000	0.462257
546.000000	0.461412
544.000000	0.458935
542.000000	0.457697
540.000000	0.454064
538.000000	0.449455
536.000000	0.444582
534.000000	0.437634
532.000000	0.429314
530.000000	0.423202
528.000000	0.415698
526.000000	0.407043
524.000000	0.398107
522.000000	0.385405
520.000000	0.375553
518.000000	0.364693
516.000000	0.354234
514.000000	0.342364
512.000000	0.330431
510.000000	0.318105
508.000000	0.305134
506.000000	0.293949
504.000000	0.281084
502.000000	0.267618
500.000000	0.257473
498.000000	0.243618
496.000000	0.231718
494.000000	0.221367
492.000000	0.209020
490.000000	0.195699
488.000000	0.187184
486.000000	0.177187
484.000000	0.162660
482.000000	0.150616
480.000000	0.144607
478.000000	0.130556
476.000000	0.124326
474.000000	0.119730
472.000000	0.110876
470.000000	0.105785
468.000000	0.099322
466.000000	0.094081
464.000000	0.089673
462.000000	0.085475
460.000000	0.081058
458.000000	0.078224
456.000000	0.075650
454.000000	0.071515
452.000000	0.070811
450.000000	0.070512
448.000000	0.068398
446.000000	0.068677
444.000000	0.068825
442.000000	0.070930
440.000000	0.072114
438.000000	0.078309
436.000000	0.087520
434.000000	0.094703
432.000000	0.110709
430.000000	0.133398
428.000000	0.164555
426.000000	0.190687
424.000000	0.229853
422.000000	0.279598
420.000000	0.339428
